time (s)	det(V)
2689.628769	-1.621415	
2689.630360	-1.621548	
2689.631920	-1.621363	
2689.633531	-1.621657	
2689.635159	-1.621367	
2689.636812	-1.621508	
2689.638392	-1.621419	
2689.640051	-1.621600	
2689.641640	-1.621387	
2689.643341	-1.621645	
2689.644918	-1.621488	
2689.646606	-1.621512	
2689.648168	-1.621475	
2689.649868	-1.613890	
2689.651419	-1.443669	
2689.653128	-1.267156	
2689.654671	-1.159214	
2689.656399	-0.993509	
2689.657908	-0.838310	
2689.659653	-0.683606	
2689.661142	-0.543739	
2689.662925	-0.352853	
2689.664408	-0.208989	
2689.666205	-0.050620	
2689.667690	0.124906	
2689.669474	0.308235	
2689.670965	0.435369	
2689.672749	0.598141	
2689.674234	0.770984	
2689.676011	0.930107	
2689.677505	1.067948	
2689.679260	1.246342	
2689.680768	1.395946	
2689.682503	1.542899	
2689.684030	1.625246	
2689.685734	1.632864	
2689.687267	1.632598	
2689.688983	1.632735	
2689.690541	1.632553	
2689.692237	1.632960	
2689.693797	1.632642	
2689.695497	1.632811	
2689.697071	1.632606	
2689.698741	1.632908	
2689.700310	1.632654	
2689.701945	1.632956	
2689.703553	1.632702	
2689.705087	1.632686	
2689.706732	1.632698	
2689.708218	1.632686	
2689.709853	1.632670	
2689.711338	1.632630	
2689.712977	1.632839	
2689.714469	1.632702	
2689.716102	1.632892	
2689.717599	1.632598	
2689.719258	1.632940	
2689.720771	1.632622	
2689.722415	1.632920	
2689.723945	1.632682	
2689.725576	1.632811	
2689.727141	1.632711	
2689.728747	1.632763	
2689.730335	1.632698	
2689.731982	1.632904	
2689.733583	1.632698	
2689.735212	1.632823	
2689.736846	1.632642	
2689.738470	1.632900	
2689.740107	1.632735	
2689.741696	1.632956	
2689.743343	1.632718	
2689.744924	1.632952	
2689.746609	1.632791	
2689.748164	1.632791	
2689.749879	1.632799	
2689.751428	1.632880	
2689.753115	1.632743	
2689.754674	1.632904	
2689.756366	1.632819	
2689.757897	1.632847	
2689.759660	1.632843	
2689.761141	1.632920	
2689.762914	1.632900	
2689.764396	1.632864	
2689.766191	1.632710	
2689.767679	1.632807	
2689.769445	1.632771	
2689.770933	1.632654	
2689.772698	1.632803	
2689.774193	1.632779	
2689.775967	1.632920	
2689.777467	1.632743	
2689.779203	1.632896	
2689.780717	1.632727	
2689.782429	1.632872	
2689.783956	1.632759	
2689.785664	1.632920	
2689.787230	1.632521	
2689.788923	1.632856	
2689.790481	1.632638	
2689.792165	1.632872	
2689.793736	1.632674	
2689.795408	1.632787	
2689.796999	1.632658	
2689.798658	1.632831	
2689.800273	1.632714	
2689.801789	1.632678	
2689.803439	1.632747	
2689.804916	1.632666	
2689.806554	1.632642	
2689.808028	1.632702	
2689.809663	1.632839	
2689.811153	1.632614	
2689.812777	1.632831	
2689.814286	1.632642	
2689.815970	1.632678	
2689.817474	1.632678	
2689.819147	1.632847	
2689.820667	1.632739	
2689.822311	1.632872	
2689.823860	1.632549	
2689.825469	1.632843	
2689.827050	1.632674	
2689.828709	1.632823	
2689.830291	1.632650	
2689.831931	1.632888	
2689.833533	1.632336	
2689.835171	1.626193	
2689.836802	1.551939	
2689.838427	1.457342	
2689.840074	1.415649	
2689.841664	1.356799	
2689.843355	1.300273	
2689.844944	1.247740	
2689.846631	1.231502	
2689.848194	1.172688	
2689.849886	1.124079	
2689.851450	1.082019	
2689.853163	1.045345	
2689.854728	0.978757	
2689.856438	0.950792	
2689.857983	0.921805	
2689.859676	0.871934	
2689.861192	0.832621	
2689.862957	0.813249	
2689.864442	0.776491	
2689.866219	0.744845	
2689.867715	0.716163	
2689.869517	0.698035	
2689.870996	0.634896	
2689.872788	0.609288	
2689.874269	0.590515	
2689.876043	0.563723	
2689.877531	0.534208	
2689.879265	0.526578	
2689.880778	0.507431	
2689.882552	0.475575	
2689.884065	0.464405	
2689.885811	0.453553	
2689.887342	0.423574	
2689.889070	0.405459	
2689.890606	0.396770	
2689.892313	0.379637	
2689.893889	0.356869	
2689.895387	0.333307	
2689.897039	0.341130	
2689.898534	0.322258	
2689.900167	0.312702	
2689.901702	0.295211	
2689.903338	0.289149	
2689.904815	0.261942	
2689.906465	0.262288	
2689.907949	0.251367	
2689.909588	0.237260	
2689.911090	0.226778	
2689.912793	0.231552	
2689.914283	0.230549	
2689.915968	0.208828	
2689.917465	0.199446	
2689.919145	0.204776	
2689.920676	0.188590	
2689.922386	0.173806	
2689.923921	0.169206	
2689.925640	0.168126	
2689.927196	0.160541	
2689.928903	0.148137	
2689.930467	0.159747	
2689.932154	0.144564	
2689.933726	0.140584	
2689.935407	0.146152	
2689.936995	0.132435	
2689.938645	0.105474	
2689.940244	0.115850	
2689.941874	0.111452	
2689.943507	0.107041	
2689.945141	0.098738	
2689.946754	0.118042	
2689.948388	0.096950	
2689.950081	0.102235	
2689.951660	0.097896	
2689.953329	0.098968	
2689.954904	0.070870	
2689.956590	0.084720	
2689.958170	0.074685	
2689.959849	0.066608	
2689.961412	0.059680	
2689.963121	0.076047	
2689.964668	0.069497	
2689.966379	0.065500	
2689.967906	0.065786	
2689.969648	0.069529	
2689.971150	0.044312	
2689.972928	0.055994	
2689.974415	0.044924	
2689.976194	0.045004	
2689.977683	0.034869	
2689.979477	0.047716	
2689.980960	0.035860	
2689.982736	0.031522	
2689.984218	0.032642	
2689.985982	0.042366	
2689.987486	0.025475	
2689.989245	0.017684	
2689.990760	0.026103	
2689.992322	0.019151	
2689.993872	0.018780	
2689.995367	0.009978	
2689.997015	0.025785	
2689.998517	0.013298	
2690.000156	0.012673	
2690.001691	0.017769	
2690.003321	0.029677	
2690.004807	-0.003472	
2690.006533	-0.000262	
2690.008005	0.003746	
2690.009735	-0.007702	
2690.011221	-0.007920	
2690.012915	0.009342	
2690.014397	0.004480	
2690.016100	-0.005934	
2690.017582	-0.001776	
2690.019306	0.003847	
2690.020801	-0.010647	
2690.022552	-0.010816	
2690.024065	-0.007392	
2690.025789	-0.012689	
2690.027317	-0.019122	
2690.029016	-0.013136	
2690.030553	0.001378	
2690.032254	-0.011525	
2690.033813	-0.006469	
2690.035515	-0.002808	
2690.037089	-0.003505	
2690.038751	-0.020742	
2690.040327	-0.010945	
2690.041994	-0.014224	
2690.043578	-0.022003	
2690.045203	-0.021153	
2690.046820	-0.003279	
2690.048426	-0.009193	
2690.050097	-0.014256	
2690.051683	-0.009922	
2690.053364	-0.000028	
2690.054960	-0.025983	
2690.056612	-0.013809	
2690.058196	-0.010744	
2690.059887	-0.019964	
2690.061451	-0.020988	
2690.063160	-0.003428	
2690.064706	-0.013229	
2690.066428	-0.012045	
2690.067981	-0.006421	
2690.069702	0.007138	
2690.071245	-0.021274	
2690.072971	-0.013120	
2690.074470	-0.008766	
2690.076237	-0.014417	
2690.077723	-0.023868	
2690.079485	-0.004568	
2690.080967	-0.001164	
2690.082748	-0.007291	
2690.084228	-0.005487	
2690.085985	0.003855	
2690.087497	-0.012540	
2690.089092	-0.016512	
2690.090617	-0.008826	
2690.092166	-0.011924	
2690.093785	-0.013233	
2690.095288	-0.013543	
2690.096934	0.003102	
2690.098443	-0.006059	
2690.100099	-0.008653	
2690.101596	0.000310	
2690.103300	0.005938	
2690.104781	-0.015896	
2690.106509	-0.010880	
2690.107981	-0.004282	
2690.109693	-0.011042	
2690.111170	-0.016371	
2690.112872	0.005640	
2690.114365	0.002377	
2690.116128	-0.004641	
2690.117620	-0.000463	
2690.119406	0.012822	
2690.120892	-0.006578	
2690.122671	-0.008903	
2690.124162	-0.001833	
2690.125907	-0.007497	
2690.127414	-0.013918	
2690.129171	-0.002667	
2690.130688	0.004915	
2690.132419	-0.004600	
2690.133948	-0.008161	
2690.135658	0.002763	
2690.137196	0.002296	
2690.138871	-0.013563	
2690.140438	-0.004939	
2690.142118	-0.007940	
2690.143688	-0.011465	
2690.145325	-0.011235	
2690.146923	0.006256	
2690.148566	-0.001474	
2690.150177	-0.004286	
2690.151821	0.003480	
2690.153436	0.007529	
2690.155055	-0.013644	
2690.156727	-0.011231	
2690.158320	-0.006260	
2690.159982	-0.011320	
2690.161550	-0.018687	
2690.163245	0.008774	
2690.164822	0.000596	
2690.166513	-0.002743	
2690.168077	-0.002328	
2690.169791	0.007303	
2690.171326	-0.014812	
2690.173053	-0.008226	
2690.174589	-0.003787	
2690.176307	-0.005076	
2690.177813	-0.018639	
2690.179579	0.002659	
2690.181071	-0.002405	
2690.182855	-0.006212	
2690.184341	0.000540	
2690.185966	0.005994	
2690.187461	-0.008540	
2690.189042	-0.010607	
2690.190581	-0.002546	
2690.192109	-0.005430	
2690.193724	-0.008903	
2690.195223	-0.010856	
2690.196833	0.005688	
2690.198366	-0.002727	
2690.200025	-0.000959	
2690.201503	0.008641	
2690.203225	0.012891	
2690.204702	-0.009467	
2690.206410	-0.001293	
2690.207894	-0.000975	
2690.209581	-0.003585	
2690.211070	-0.011992	
2690.212835	0.011191	
2690.214327	0.006989	
2690.216131	0.001861	
2690.217610	0.007726	
2690.219378	0.019715	
2690.220859	0.001579	
2690.222614	0.000173	
2690.224116	0.008661	
2690.225843	0.005257	
2690.227363	0.000798	
2690.229090	0.005060	
2690.230628	0.017596	
2690.232376	0.009314	
2690.233915	0.013499	
2690.235628	0.015908	
2690.237176	0.025411	
2690.238860	0.002840	
2690.240423	0.019638	
2690.242107	0.011259	
2690.243695	0.009720	
2690.245367	0.008399	
2690.246937	0.034281	
2690.248581	0.020363	
2690.250179	0.019247	
2690.251830	0.021088	
2690.253467	0.036448	
2690.255089	0.008194	
2690.256733	0.017088	
2690.258329	0.018562	
2690.260009	0.010808	
2690.261622	0.002993	
2690.263274	0.031912	
2690.264841	0.023884	
2690.266538	0.019920	
2690.268099	0.023811	
2690.269809	0.030982	
2690.271352	0.007001	
2690.273039	0.018844	
2690.274572	0.020375	
2690.276306	0.014570	
2690.277830	0.015070	
2690.279598	0.028347	
2690.281083	0.025294	
2690.282726	0.018466	
2690.284214	0.026696	
2690.285796	0.029657	
2690.287327	0.016041	
2690.288866	0.000898	
2690.290463	0.013181	
2690.291963	0.011070	
2690.293600	0.005197	
2690.295155	0.003021	
2690.296778	0.023642	
2690.298279	0.017338	
2690.299989	0.010554	
2690.301466	0.017781	
2690.303205	0.023018	
2690.304778	-0.003102	
2690.306449	0.006760	
2690.307989	0.014349	
2690.309705	0.004810	
2690.311256	-0.001213	
2690.312985	0.017749	
2690.314492	0.014707	
2690.316259	0.005148	
2690.317740	0.011618	
2690.319512	0.022712	
2690.321000	0.004854	
2690.322776	-0.002300	
2690.324265	0.009539	
2690.326034	0.000552	
2690.327512	-0.006441	
2690.329279	0.004379	
2690.330772	0.012709	
2690.332534	0.004556	
2690.334046	0.005620	
2690.335784	0.015340	
2690.337319	0.012915	
2690.339024	-0.006925	
2690.340562	0.002272	
2690.342262	0.001611	
2690.343804	-0.003533	
2690.345482	-0.003581	
2690.347050	0.013080	
2690.348723	-0.001003	
2690.350300	-0.000177	
2690.351919	0.007416	
2690.353528	0.008182	
2690.355182	-0.009261	
2690.356779	-0.001337	
2690.358396	-0.005237	
2690.360049	-0.011726	
2690.361647	-0.014889	
2690.363326	0.009176	
2690.364889	-0.000322	
2690.366579	-0.011634	
2690.368144	-0.000318	
2690.369834	0.004520	
2690.371408	-0.018099	
2690.373085	-0.013100	
2690.374574	-0.009193	
2690.376125	-0.014260	
2690.377625	-0.018446	
2690.379234	-0.011014	
2690.380744	-0.005773	
2690.382322	-0.012605	
2690.383856	-0.015171	
2690.385354	-0.010913	
2690.386988	-0.007827	
2690.388564	-0.026595	
2690.390176	-0.023368	
2690.391717	-0.024545	
2690.393430	-0.033681	
2690.394914	-0.038922	
2690.396622	-0.021906	
2690.398101	-0.039711	
2690.399831	-0.038668	
2690.401378	-0.030946	
2690.403059	-0.029624	
2690.404619	-0.051981	
2690.406312	-0.050378	
2690.407848	-0.051220	
2690.409586	-0.060582	
2690.411062	-0.074258	
2690.412840	-0.058028	
2690.414326	-0.067994	
2690.416102	-0.079483	
2690.417588	-0.080885	
2690.419375	-0.072385	
2690.420862	-0.092994	
2690.422635	-0.102525	
2690.424127	-0.105276	
2690.425873	-0.107737	
2690.427387	-0.119802	
2690.429133	-0.126240	
2690.430649	-0.120660	
2690.432379	-0.134264	
2690.433912	-0.141092	
2690.435618	-0.144286	
2690.437165	-0.150647	
2690.438854	-0.177810	
2690.440411	-0.177125	
2690.442110	-0.185637	
2690.443677	-0.204884	
2690.445339	-0.215616	
2690.446919	-0.212123	
2690.448554	-0.230557	
2690.450169	-0.238815	
2690.451799	-0.247552	
2690.453429	-0.253035	
2690.455061	-0.291199	
2690.456701	-0.285922	
2690.458303	-0.304525	
2690.459967	-0.326318	
2690.461552	-0.343656	
2690.463215	-0.338029	
2690.464783	-0.356426	
2690.466476	-0.380084	
2690.468040	-0.392459	
2690.469722	-0.394506	
2690.471214	-0.434156	
2690.472844	-0.438974	
2690.474344	-0.452968	
2690.475963	-0.473525	
2690.477461	-0.499532	
2690.479059	-0.512076	
2690.480579	-0.521023	
2690.482128	-0.550079	
2690.483724	-0.570144	
2690.485333	-0.586922	
2690.486941	-0.599475	
2690.488504	-0.647947	
2690.490138	-0.667871	
2690.491659	-0.687441	
2690.493328	-0.719108	
2690.494802	-0.750295	
2690.496531	-0.755548	
2690.498087	-0.793221	
2690.499789	-0.829902	
2690.501340	-0.852594	
2690.503038	-0.872369	
2690.504593	-0.925547	
2690.506315	-0.956803	
2690.507826	-0.985271	
2690.509587	-1.031689	
2690.511076	-1.073954	
2690.512860	-1.094450	
2690.514347	-1.133102	
2690.516130	-1.184886	
2690.517621	-1.219651	
2690.519396	-1.244453	
2690.520876	-1.305808	
2690.522644	-1.359941	
2690.524127	-1.399181	
2690.525870	-1.451279	
2690.527374	-1.501560	
2690.529117	-1.553473	
2690.530632	-1.589321	
2690.532351	-1.619421	
2690.533898	-1.621467	
2690.535613	-1.621479	
2690.537154	-1.621475	
2690.538858	-1.621504	
2690.540409	-1.621471	
2690.542088	-1.621431	
2690.543647	-1.621488	
2690.545328	-1.621355	
2690.546919	-1.621532	
2690.548560	-1.621330	
2690.550160	-1.621467	
2690.551801	-1.621363	
2690.553415	-1.621564	
2690.555043	-1.621399	
2690.556700	-1.621536	
2690.558290	-1.621447	
2690.559980	-1.621536	
2690.561574	-1.621338	
2690.563241	-1.621536	
2690.564834	-1.621407	
2690.566504	-1.621556	
2690.567994	-1.621532	
2690.569623	-1.621540	
2690.571119	-1.621528	
2690.572762	-1.621496	
2690.574238	-1.621492	
2690.575860	-1.621532	
2690.577373	-1.621512	
2690.578944	-1.621576	
2690.580494	-1.621677	
2690.582117	-1.621455	
2690.583684	-1.621524	
2690.585253	-1.621548	
2690.586855	-1.621500	
2690.588403	-1.621443	
2690.590061	-1.621608	
2690.591554	-1.621508	
2690.593262	-1.621512	
2690.594838	-1.621427	
2690.596527	-1.621580	
2690.598097	-1.621508	
2690.599765	-1.621624	
2690.601320	-1.621520	
2690.603030	-1.621496	
2690.604564	-1.621516	
2690.606289	-1.621625	
2690.607785	-1.621568	
2690.609557	-1.621536	
2690.611043	-1.621472	
2690.612794	-1.621544	
2690.614280	-1.621584	
2690.616045	-1.621480	
2690.617534	-1.621576	
2690.619304	-1.621612	
2690.620791	-1.621451	
2690.622529	-1.621508	
2690.624027	-1.621612	
2690.625760	-1.621592	
2690.627282	-1.621576	
2690.628997	-1.621540	
2690.630542	-1.621496	
2690.632236	-1.621564	
2690.633801	-1.621564	
2690.635498	-1.621552	
2690.637051	-1.621560	
2690.638726	-1.621504	
2690.640295	-1.621512	
2690.641951	-1.621492	
2690.643555	-1.621629	
2690.645189	-1.621455	
2690.646807	-1.621596	
2690.648453	-1.621375	
2690.650059	-1.621580	
2690.651663	-1.621367	
2690.653313	-1.621584	
2690.654906	-1.621391	
2690.656568	-1.621435	
2690.658129	-1.621480	
2690.659815	-1.621532	
2690.661376	-1.621532	
2690.663080	-1.621600	
2690.664554	-1.621459	
2690.666204	-1.621520	
2690.667703	-1.621504	
2690.669327	-1.621512	
2690.670838	-1.621480	
2690.672423	-1.621463	
2690.673960	-1.621600	
2690.675502	-1.621483	
2690.677061	-1.621528	
2690.678662	-1.621411	
2690.680249	-1.584987	
2690.681807	-1.418851	
2690.683423	-1.277481	
2690.684956	-1.139318	
2690.686641	-0.980054	
2690.688118	-0.867930	
2690.689841	-0.707671	
2690.691400	-0.563212	
2690.693104	-0.419195	
2690.694656	-0.295433	
2690.696363	-0.113055	
2690.697927	0.028706	
2690.699627	0.177705	
2690.701148	0.336550	
2690.702905	0.505776	
2690.704401	0.618279	
2690.706177	0.780431	
2690.707656	0.939396	
2690.709427	1.088802	
2690.710922	1.229153	
2690.712693	1.403733	
2690.714193	1.547604	
2690.715973	1.624907	
2690.717454	1.632662	
2690.719201	1.632811	
2690.720713	1.632682	
2690.722470	1.632694	
2690.723983	1.632658	
2690.725714	1.632702	
2690.727245	1.632658	
2690.728967	1.632839	
2690.730503	1.632731	
2690.732229	1.632996	
2690.733782	1.632565	
2690.735474	1.632815	
2690.737036	1.632735	
2690.738710	1.632835	
2690.740287	1.632642	
2690.741931	1.632823	
2690.743541	1.632759	
2690.745189	1.632952	
2690.746790	1.632747	
2690.748411	1.632928	
2690.750018	1.632642	
2690.751631	1.632920	
2690.753305	1.632654	
2690.754882	1.632839	
2690.756555	1.632690	
2690.758029	1.632662	
2690.759612	1.632646	
2690.761112	1.632694	
2690.762757	1.632872	
2690.764253	1.632719	
2690.765860	1.632799	
2690.767387	1.632698	
2690.768954	1.632779	
2690.770505	1.632787	
2690.772024	1.632831	
2690.773643	1.632767	
2690.775216	1.632863	
2690.776825	1.632706	
2690.778379	1.632864	
2690.780023	1.632707	
2690.781521	1.632751	
2690.783230	1.632771	
2690.784712	1.632843	
2690.786448	1.632739	
2690.788007	1.632912	
2690.789728	1.632799	
2690.791271	1.632827	
2690.792980	1.632787	
2690.794509	1.632847	
2690.796240	1.632831	
2690.797735	1.632920	
2690.799508	1.632710	
2690.800992	1.632807	
2690.802767	1.632860	
2690.804255	1.632803	
2690.806028	1.632791	
2690.807507	1.632823	
2690.809262	1.632715	
2690.810754	1.632819	
2690.812512	1.632783	
2690.814019	1.632731	
2690.815763	1.632646	
2690.817287	1.632614	
2690.819020	1.632710	
2690.820550	1.632666	
2690.822266	1.632771	
2690.823809	1.632650	
2690.825522	1.632783	
2690.827084	1.632594	
2690.828769	1.632771	
2690.830333	1.632650	
2690.832008	1.632872	
2690.833589	1.632674	
2690.835267	1.632872	
2690.836860	1.632662	
2690.838497	1.632819	
2690.840126	1.632682	
2690.841756	1.632872	
2690.843385	1.632513	
2690.845001	1.632803	
2690.846643	1.632578	
2690.848250	1.632767	
2690.849907	1.632722	
2690.851478	1.632847	
2690.853174	1.632590	
2690.854655	1.632573	
2690.856288	1.632702	
2690.857770	1.632630	
2690.859412	1.632819	
2690.860903	1.632429	
2690.862520	1.632714	
2690.864032	1.632594	
2690.865593	1.632622	
2690.867146	1.629605	
2690.868772	1.577386	
2690.870349	1.518036	
2690.871933	1.428156	
2690.873551	1.393219	
2690.875122	1.348702	
2690.876745	1.295911	
2690.878275	1.253436	
2690.879962	1.229226	
2690.881577	1.177486	
2690.883259	1.124554	
2690.884825	1.094897	
2690.886516	1.066586	
2690.888084	0.998113	
2690.889774	0.959997	
2690.891353	0.926925	
2690.893042	0.886988	
2690.894611	0.848247	
2690.896332	0.831905	
2690.897854	0.798091	
2690.899587	0.762533	
2690.901099	0.728925	
2690.902868	0.710048	
2690.904350	0.664435	
2690.906126	0.622287	
2690.907618	0.617030	
2690.909406	0.587329	
2690.910889	0.545116	
2690.912696	0.541878	
2690.914174	0.521869	
2690.915947	0.490500	
2690.917425	0.472820	
2690.919191	0.455615	
2690.920701	0.423018	
2690.922481	0.400117	
2690.923989	0.394320	
2690.925712	0.374517	
2690.927235	0.356595	
2690.928969	0.341175	
2690.930507	0.334173	
2690.932239	0.309588	
2690.933792	0.298934	
2690.935500	0.289685	
2690.937062	0.278240	
2690.938748	0.249901	
2690.940319	0.245192	
2690.941996	0.233848	
2690.943562	0.214101	
2690.945226	0.194580	
2690.946828	0.213767	
2690.948455	0.194262	
2690.950082	0.175421	
2690.951604	0.181452	
2690.953234	0.178664	
2690.954713	0.147940	
2690.956360	0.148246	
2690.957848	0.143034	
2690.959494	0.133172	
2690.960994	0.108092	
2690.962620	0.126602	
2690.964129	0.134981	
2690.965813	0.116958	
2690.967318	0.114227	
2690.968957	0.107222	
2690.970491	0.102549	
2690.972117	0.083169	
2690.973692	0.090694	
2690.975278	0.084405	
2690.976868	0.079020	
2690.978524	0.066834	
2690.980138	0.080341	
2690.981752	0.070133	
2690.983364	0.070878	
2690.984993	0.065629	
2690.986651	0.075604	
2690.988260	0.052010	
2690.989950	0.047047	
2690.991554	0.050712	
2690.993235	0.046185	
2690.994822	0.030402	
2690.996508	0.049617	
2690.998089	0.048437	
2690.999749	0.034986	
2691.001301	0.041971	
2691.003008	0.052356	
2691.004557	0.030221	
2691.006281	0.029181	
2691.007787	0.033206	
2691.009546	0.033560	
2691.011040	0.020021	
2691.012806	0.035735	
2691.014299	0.032919	
2691.016083	0.021721	
2691.017559	0.022401	
2691.019336	0.027231	
2691.020822	0.013612	
2691.022589	0.002856	
2691.024077	0.009172	
2691.025812	0.004286	
2691.027320	-0.000238	
2691.029033	0.001789	
2691.030567	0.014039	
2691.032306	0.003593	
2691.033842	0.004419	
2691.035547	0.010889	
2691.037098	0.024621	
2691.038786	-0.007376	
2691.040341	-0.003891	
2691.042020	-0.005486	
2691.043612	-0.008915	
2691.045270	-0.011114	
2691.046891	0.006397	
2691.048389	-0.002820	
2691.050029	-0.007758	
2691.051524	-0.001382	
2691.053141	0.007871	
2691.054632	-0.015453	
2691.056269	-0.013273	
2691.057764	-0.005986	
2691.059397	-0.012951	
2691.060886	-0.020609	
2691.062592	-0.009181	
2691.064074	-0.002538	
