time (s)	magX	magY	magZ
2800.628722	3.597896	-316.729401	-650.068909
2800.632054	2.195208	-309.715973	-666.609009
2800.635396	0.675628	-304.572784	-682.038574
2800.638729	-0.025716	-296.215088	-698.344788
2800.642053	-1.954413	-287.389832	-712.313232
2800.645388	-2.889538	-277.804810	-725.931030
2800.649574	-6.980713	-258.517822	-754.335449
2800.652899	-8.383402	-247.296310	-765.498535
2800.656263	-10.779661	-236.483932	-778.122681
2800.659605	-12.416130	-223.450607	-788.935120
2800.662501	-13.935711	-209.599060	-797.468140
2800.665835	-16.390415	-196.624191	-807.637634
2800.669178	-18.260666	-182.889526	-815.469299
2800.672088	-20.715370	-167.810638	-824.177612
2800.675397	-22.936295	-151.738159	-828.619507
2800.678728	-25.507891	-136.308594	-833.762695
2800.682056	-27.611921	-120.002342	-837.795410
2800.685383	-28.897720	-103.637634	-841.243652
2800.688719	-32.521332	-86.863823	-841.769714
2800.692055	-34.625366	-70.148453	-843.581543
2800.695388	-36.904736	-52.205727	-843.932190
2800.698712	-38.716541	-34.789013	-842.003479
2800.702051	-40.762127	-16.729397	-838.204529
2800.705377	-42.924603	1.622443	-836.217407
2800.708723	-44.385742	19.156050	-830.957275
2800.712051	-46.372883	36.163647	-824.236084
2800.715411	-48.184689	53.989483	-818.040894
2800.718713	-49.412041	71.464638	-811.144348
2800.722051	-50.697838	88.063118	-802.319092
2800.725382	-52.275860	104.544708	-792.324951
2800.728714	-53.210987	120.734070	-783.090576
2800.732044	-54.672123	136.981888	-773.271729
2800.735378	-54.905903	152.528351	-761.991821
2800.738711	-55.724136	167.431915	-748.900024
2800.742929	-57.769722	195.777908	-724.820557
2800.746226	-58.178841	209.103439	-710.618347
2800.749563	-58.061951	221.844528	-697.351257
2800.752917	-58.763294	233.358261	-683.149048
2800.755808	-58.938633	244.053772	-668.771423
2800.759173	-59.230858	254.281708	-653.575684
2800.762493	-59.815311	264.977203	-638.087646
2800.765830	-59.639980	274.386902	-623.008728
2800.768710	-59.289307	282.686127	-607.170044
2800.772045	-60.282875	290.108704	-591.506714
2800.775376	-59.698421	297.239044	-574.732910
2800.778711	-59.990650	304.018707	-560.530640
2800.782038	-59.873760	310.097015	-545.159546
2800.785378	-59.873760	315.415558	-529.379333
2800.788709	-59.932201	318.513153	-511.611938
2800.792039	-60.107540	324.065460	-496.766815
2800.795374	-59.932201	327.805969	-483.090607
2800.798714	-59.639980	330.377563	-467.135010
2800.802074	-59.581532	331.546478	-452.699005
2800.805375	-59.230858	333.416718	-437.853882
2800.808706	-58.821743	335.053192	-422.891876
2800.812038	-59.581532	335.754547	-408.748108
2800.815371	-59.230858	335.462311	-395.188782
2800.818705	-58.529514	334.819397	-381.512573
2800.822042	-58.646404	334.234955	-368.303925
2800.825370	-58.587963	332.656921	-354.978394
2800.828703	-58.471073	332.481598	-341.945068
2800.832039	-57.477497	329.500854	-330.255981
2800.835364	-57.126827	328.098175	-318.391602
2800.839618	-55.841030	322.019867	-294.896545
2800.842892	-55.022793	320.032745	-284.727051
2800.846254	-54.263000	317.052002	-274.382233
2800.849554	-53.736996	314.480438	-263.628296
2800.852484	-53.152542	310.155457	-252.757446
2800.855799	-52.275860	305.655182	-243.932190
2800.859122	-50.873173	303.200470	-234.113373
2800.862480	-50.171829	299.810638	-224.995911
2800.865370	-49.002922	295.076569	-216.755127
2800.868699	-48.301579	292.212738	-208.689667
2800.872032	-47.366451	286.835754	-201.033295
2800.875365	-46.548218	283.913483	-192.558746
2800.878749	-45.554646	278.770294	-185.019287
2800.882029	-44.970192	275.380463	-177.947388
2800.885366	-44.268848	271.055542	-170.174164
2800.888733	-42.983047	266.613678	-163.219177
2800.892034	-42.515488	262.522522	-156.614838
2800.895380	-41.112801	258.606659	-150.478088
2800.898696	-40.294563	255.099945	-144.750427
2800.902032	-39.827000	249.722961	-138.964355
2800.905357	-38.774986	246.625381	-133.353592
2800.908702	-37.839859	241.832855	-127.684395
2800.912030	-37.956749	238.150787	-122.658096
2800.915360	-36.787846	234.702515	-116.755112
2800.918701	-36.320282	230.085327	-112.430161
2800.922030	-35.911163	225.994156	-107.111633
2800.925363	-34.800701	222.428986	-102.494446
2800.928694	-34.742256	218.980713	-97.935707
2800.932025	-34.099358	214.480423	-94.604324
2800.936281	-32.930450	207.759216	-86.363525
2800.939647	-31.878433	203.901810	-82.798363
2800.942887	-31.878433	199.869080	-80.109879
2800.946206	-31.586206	196.829926	-75.960251
2800.949115	-30.826416	193.147858	-73.388657
2800.952453	-30.066628	189.582703	-70.232613
2800.955785	-29.365284	186.426651	-66.725891
2800.959114	-29.482174	182.686157	-63.978958
2800.962023	-29.248392	180.114563	-60.413792
2800.965357	-28.430157	177.426071	-58.485096
2800.968690	-28.430157	173.685562	-55.738163
2800.972030	-27.904148	170.763306	-52.523670
2800.975383	-27.436586	168.074814	-48.724720
2800.978689	-27.495031	165.269440	-47.614258
2800.982021	-27.202805	162.639389	-45.919342
2800.985392	-26.676796	159.600235	-44.107536
2800.988689	-26.267679	157.262421	-41.243713
2800.992023	-25.157217	154.690826	-40.542370
2800.995357	-25.157217	152.411469	-38.847458
2800.998681	-24.572765	149.839859	-36.334305
2801.002023	-24.689655	147.911163	-34.931618
2801.005353	-23.929867	144.229095	-33.236702
2801.008687	-23.754528	142.767960	-31.015778
2801.012019	-23.754528	141.014618	-30.372879
2801.015351	-23.053185	138.793686	-28.327293
2801.018706	-22.760958	136.806549	-27.333721
2801.022020	-22.118059	134.585617	-26.047924
2801.025350	-22.118059	132.656921	-24.528345
2801.028682	-21.416716	130.552887	-23.593220
2801.032896	-21.007597	126.987732	-20.963179
2801.036307	-20.890707	125.643478	-20.086494
2801.039615	-20.072472	123.831680	-18.625362
2801.042905	-19.955582	122.019875	-18.040909
2801.045770	-20.072472	119.974281	-16.988892
2801.049109	-19.312681	119.214500	-17.164230
2801.052435	-18.903564	117.519585	-15.703094
2801.055783	-18.611338	115.006424	-14.767971
2801.058687	-18.669783	113.662186	-13.482174
2801.062036	-18.436003	112.785507	-13.073055
2801.065349	-17.968439	111.090591	-11.962593
2801.068679	-17.793104	109.980133	-11.378139
2801.072013	-17.442430	108.928108	-10.969021
2801.075341	-17.442430	107.700768	-10.501457
2801.078676	-17.500877	106.414963	-9.683224
2801.082009	-17.091759	105.246056	-9.274105
2801.085344	-17.500877	104.135597	-8.689651
2801.088700	-16.974869	103.083572	-8.222092
2801.092012	-17.267096	101.856216	-6.877846
2801.095349	-17.033314	100.979546	-6.118057
2801.098672	-16.624197	99.459969	-6.819401
2801.102014	-16.682642	98.407951	-5.182934
2801.105383	-16.799532	97.589714	-5.358269
2801.108676	-16.390415	96.420807	-4.715370
2801.112010	-16.448860	95.485680	-4.598480
2801.115343	-15.864407	94.959671	-3.897137
2801.118674	-16.331970	93.732323	-3.254238
2801.122011	-15.922852	93.147865	-2.962009
2801.125345	-15.689070	92.154297	-2.903564
2801.129571	-15.455290	90.459381	-2.845119
2801.132931	-15.221508	90.050262	-1.617767
2801.136282	-15.338398	89.699593	-0.624195
2801.139638	-15.747517	89.056694	-0.507301
2801.142444	-15.279953	88.589127	-0.448860
2801.145774	-14.461718	87.770889	-0.390411
2801.149138	-14.987726	87.361778	-0.390411
2801.152422	-14.286383	86.368202	-0.390411
2801.155342	-13.935711	86.426651	0.310932
2801.158671	-13.877266	85.549965	0.194042
2801.162000	-13.877266	85.433075	0.720047
2801.165335	-13.818819	85.082405	1.012276
2801.168673	-13.877266	85.082405	0.603157
2801.172003	-13.351255	84.439507	0.018703
2801.175333	-13.643482	84.030388	1.012276
2801.178670	-13.585037	83.679718	0.836937
2801.181999	-13.234365	83.212158	1.129166
2801.185338	-13.234365	83.036819	1.830509
2801.188676	-13.117476	82.686150	2.122734
2801.192013	-13.351255	82.861481	1.830509
2801.195333	-13.000584	82.744591	2.473412
2801.198671	-13.526592	82.686150	2.064293
2801.202002	-13.117476	82.218590	1.830509
2801.205336	-12.825249	82.277031	1.947403
2801.208659	-12.766804	82.043251	2.064293
2801.212002	-12.533022	81.926361	2.122734
2801.215332	-12.649912	81.984802	0.720047
2801.218664	-13.292810	81.283463	1.655170
2801.222020	-13.117476	81.400352	2.181183
2801.226198	-12.766804	81.458794	0.603157
2801.229525	-13.526592	81.400352	1.479839
2801.232945	-13.292810	80.757454	1.362949
2801.235803	-13.234365	81.049683	1.713619
2801.239085	-12.883694	81.049683	0.720047
2801.242427	-12.825249	81.283463	2.181183
2801.245755	-13.409702	81.049683	1.187607
2801.249085	-13.409702	81.926361	0.778496
2801.251993	-13.526592	81.692574	1.362949
2801.255332	-13.585037	81.867912	0.778496
2801.258659	-13.292810	82.101700	1.187607
2801.261992	-13.000584	81.692574	0.778496
2801.265346	-13.643482	82.335480	0.486263
2801.268657	-13.585037	82.861481	0.018703
2801.271991	-13.643482	83.153709	0.895386
2801.275330	-13.292810	83.153709	1.304501
2801.278660	-13.351255	83.153709	1.012276
2801.281988	-13.877266	83.679718	-0.098190
2801.285322	-13.059031	83.913498	0.252483
2801.288733	-13.526592	84.088837	-0.507301
2801.291993	-13.994156	84.381065	-0.331970
2801.295358	-13.994156	85.257744	-0.156631
2801.298662	-13.059031	85.900642	-0.331970
2801.301989	-13.468147	86.309761	-0.331970
2801.305321	-13.059031	86.368202	0.018703
2801.308678	-13.292810	86.952660	-0.273521
2801.311988	-13.234365	88.296906	-1.091755
2801.315321	-12.942139	88.647575	-1.909992
2801.318654	-13.409702	88.647575	-1.968441
2801.322862	-13.409702	89.758041	-1.676208
2801.326197	-13.468147	90.693161	-2.436001
2801.329625	-13.409702	91.745178	-1.968441
2801.332918	-13.351255	92.271187	-2.962009
2801.335763	-13.818819	93.147865	-3.020454
2801.339114	-13.234365	93.966103	-3.488018
2801.342415	-13.818819	94.842781	-2.903564
2801.345748	-13.994156	95.368790	-4.130917
2801.348657	-14.169493	96.420807	-4.656925
2801.352011	-14.052601	96.596138	-4.656925
2801.355323	-14.461718	97.881935	-5.475159
2801.358652	-14.812391	98.817062	-5.533604
2801.361986	-14.987726	99.752190	-5.650494
2801.365317	-14.929281	100.745758	-7.228519
2801.368650	-14.520164	101.680885	-5.825832
2801.371981	-14.695499	102.791344	-6.702511
2801.375315	-15.163063	104.603157	-7.988308
2801.378645	-15.864407	105.362938	-8.631207
2801.381999	-15.805962	106.414963	-9.917004
2801.385314	-16.098188	107.759201	-10.501457
2801.388643	-15.922852	108.869675	-10.852131
2801.392002	-15.981298	109.571014	-10.735241
2801.395315	-16.799532	111.149040	-11.611923
2801.398647	-16.507305	112.142609	-12.254822
2801.401977	-16.916424	113.662186	-13.482174
2801.405316	-17.267096	115.707764	-14.241962
2801.408647	-17.442430	116.584457	-14.884861
2801.411982	-17.383986	118.513153	-15.819988
2801.415317	-17.559322	120.208061	-16.229103
2801.419492	-17.909994	123.656342	-18.216244
2801.422843	-18.202221	125.701927	-18.508472
2801.426217	-18.026884	127.630630	-20.203386
2801.429584	-18.728230	129.033310	-21.313850
2801.432421	-18.377556	131.137344	-23.067211
2801.435755	-18.845119	133.007599	-23.593220
2801.439088	-18.903564	133.942719	-24.703680
2801.442395	-19.137346	136.864990	-25.872587
2801.445305	-19.780245	139.553482	-27.859730
2801.448643	-19.429575	141.248398	-29.320864
2801.451981	-19.897137	142.943314	-30.723551
2801.455312	-20.130919	145.631790	-32.652248
2801.458642	-20.598480	147.735825	-33.879601
2801.461973	-20.832262	150.190536	-35.516068
2801.465307	-20.540035	152.645248	-37.503212
2801.468664	-20.715370	155.041489	-39.198128
2801.471968	-20.773817	157.613083	-41.009933
2801.475307	-21.066044	160.710693	-43.055519
2801.478630	-21.182934	163.106949	-45.101109
2801.481974	-21.650496	166.029221	-46.503796
2801.485304	-22.059614	168.951492	-48.549385
2801.488642	-22.468731	172.049088	-51.822323
2801.491977	-22.468731	174.445358	-54.627701
2801.495345	-22.760958	177.835175	-57.023960
2801.498640	-22.994740	180.406784	-59.537109
2801.501969	-24.046757	183.913498	-63.452950
2801.505305	-23.812973	187.303329	-65.264755
2801.508637	-24.455873	189.582703	-68.011688
2801.512010	-25.390999	193.849213	-71.927521
2801.516160	-26.326124	199.752182	-78.181183
2801.519508	-25.800117	203.317352	-80.752777
2801.522847	-26.910578	206.707184	-84.610168
2801.526251	-27.319695	210.389252	-89.285797
2801.529080	-27.495031	214.363525	-92.675629
2801.532414	-27.728813	218.104034	-96.649910
2801.535735	-27.728813	221.260071	-100.507301
2801.539054	-28.488604	225.468155	-105.475159
2801.541967	-28.897720	229.383987	-110.033897
2801.545300	-29.306839	233.241364	-114.943298
2801.548632	-30.125072	236.689667	-120.028053
2801.551968	-30.475744	240.780823	-125.288139
2801.555314	-30.826416	244.638229	-131.074219
2801.558632	-30.592636	248.904724	-136.158966
2801.561968	-30.884863	253.463486	-142.295731
2801.565298	-31.761541	257.028625	-148.958496
2801.568628	-31.761541	261.061371	-154.686142
2801.571957	-31.235535	265.035645	-161.758026
2801.575297	-32.287552	269.769714	-168.303909
2801.578629	-32.521332	273.276459	-174.849792
2801.581956	-32.930450	278.010498	-183.616608
2801.585291	-33.164230	281.634155	-190.688477
2801.588624	-33.339565	285.140839	-199.163055
2801.591978	-33.339565	289.407379	-207.345428
2801.595297	-33.807129	294.083008	-216.521332
2801.598641	-33.047340	297.881927	-225.171234
2801.601963	-33.456459	301.154877	-234.230255
2801.605295	-33.456459	305.304504	-243.698425
2801.608625	-33.222675	309.395660	-253.400360
2801.612810	-34.040913	316.116882	-274.499146
2801.616132	-34.450027	319.097626	-285.603729
2801.619497	-34.566917	321.727631	-295.422546
2801.622843	-34.333138	323.481018	-306.527161
2801.625741	-34.625366	326.812378	-318.976044
2801.629074	-34.216248	329.384003	-330.957336
2801.632461	-34.391582	331.780243	-343.873779
2801.635757	-34.800701	333.533600	-355.796600
2801.638621	-34.859146	334.059631	-368.245453
2801.641957	-34.742256	334.527191	-381.045013
2801.645290	-35.209816	335.988312	-395.480988
2801.648621	-35.326710	336.046753	-409.449432
2801.651948	-35.326710	336.046753	-423.651672
2801.655286	-35.735828	335.812988	-437.853882
2801.658622	-35.209816	335.170074	-451.880768
2801.661952	-35.618938	333.650482	-466.258331
2801.665289	-35.268265	330.903564	-481.220337
2801.668623	-34.742256	328.215088	-497.117493
2801.671948	-34.566917	324.123901	-510.501495
2801.675289	-33.690239	321.493866	-526.749268
2801.678642	-33.690239	317.344238	-543.055542
2801.681946	-33.047340	311.265930	-558.718872
2801.685289	-32.053768	305.830505	-575.375793
2801.688616	-31.644651	299.167725	-589.052002
2801.691944	-30.651081	291.394501	-604.949097
2801.695282	-29.423729	284.497955	-619.209778
2801.698618	-27.553476	276.783142	-635.399170
2801.701954	-26.384569	267.782593	-651.062500
2801.706582	-23.988312	247.326706	-680.051392
2801.709467	-22.293396	236.689667	-693.844482
2801.712814	-20.481590	225.000595	-709.741638
2801.716159	-18.611338	212.259506	-723.242493
2801.719545	-16.448860	199.226196	-736.042053
2801.722426	-14.637054	185.725311	-748.198669
2801.725721	-12.649912	171.406204	-759.770874
2801.729048	-10.370543	156.502625	-771.226135
2801.732372	-8.383402	140.839279	-782.973694
2801.735274	-6.279369	125.000587	-791.974243
2801.738606	-3.532437	108.402107	-802.669739
2801.741950	-1.428404	92.504967	-811.436584
2801.745275	1.260082	76.374046	-818.333130
2801.748617	2.779661	59.074223	-826.398560
2801.751942	4.883694	41.540619	-831.424866
2801.755277	6.637054	24.299240	-835.749817
2801.758611	8.507305	6.239626	-840.074829
2801.761946	10.143776	-11.936879	-842.763245
2801.765291	11.488018	-29.587376	-845.743958
2801.768606	13.241381	-46.828754	-844.458191
2801.771946	14.527178	-64.011688	-844.165955
2801.775275	15.637638	-80.960838	-844.107483
2801.778611	17.624783	-97.150208	-840.367004
2801.781941	18.735243	-114.216248	-836.568054
2801.785272	19.495033	-130.113388	-831.658691
2801.788631	20.430159	-145.835190	-827.099915
2801.791938	21.482174	-160.972534	-819.151306
2801.795272	23.001755	-174.765640	-812.488586
2801.798611	23.527761	-189.727646	-804.247803
2801.801937	24.345997	-203.403854	-795.247192
2801.806128	26.040911	-228.418472	-773.037964
2801.809477	26.917591	-239.230865	-762.283997
2801.812807	27.618935	-250.101685	-749.075378
2801.816148	28.787846	-260.095856	-736.801819
2801.819055	29.430744	-270.908234	-722.833435
2801.822380	30.132088	-279.908813	-709.507874
2801.825740	30.774986	-287.331390	-694.019897
2801.829034	31.242550	-295.046173	-680.226746
2801.831938	31.651665	-302.702515	-663.920471
2801.835269	32.645237	-309.482178	-648.023315
2801.838602	33.112801	-315.560486	-632.885986
2801.841935	33.697254	-320.937469	-616.229065
2801.845267	34.515488	-324.210419	-599.922852
2801.848606	34.924606	-328.126251	-583.382751
2801.851949	35.216831	-332.275879	-567.485657
2801.855265	35.918175	-334.789001	-549.250732
2801.858602	35.801285	-338.237274	-534.171814
2801.861929	36.502628	-339.289307	-517.924011
2801.865271	36.502628	-341.393341	-501.968445
2801.868593	36.327293	-341.802460	-485.486847
2801.871938	36.794857	-342.445343	-469.998840
2801.875264	36.268848	-343.789612	-452.874329
2801.878599	36.970192	-342.971375	-439.198151
2801.881944	35.801285	-341.451782	-423.417877
2801.885261	35.859730	-341.101135	-407.579193
2801.888601	35.742840	-340.165985	-393.727631
2801.891979	35.684395	-338.061951	-379.350098
2801.895272	35.450615	-335.198151	-364.972534
2801.898594	34.749268	-333.620087	-351.413208
2801.902781	33.463470	-328.301575	-325.405029
2801.906118	33.580364	-325.145538	-312.605499
2801.909438	32.528347	-320.995911	-301.325531
2801.912842	31.827003	-319.885437	-289.987152
2801.915687	31.242550	-316.028046	-279.350098
2801.919036	30.482761	-312.229095	-267.310333
2801.922376	30.073643	-309.014618	-256.322632
2801.925716	28.787846	-305.683228	-247.088257
2801.928591	28.144943	-301.825836	-236.860321
2801.931925	28.495619	-297.851532	-227.333740
2801.935262	27.618935	-293.468140	-218.625366
2801.938598	26.508474	-290.545868	-210.209229
2801.941926	25.690239	-286.396271	-201.442444
2801.945261	25.222677	-281.954407	-193.026306
2801.948595	24.930450	-278.564575	-186.012848
2801.951922	23.819988	-274.414978	-178.648743
2801.955277	23.469316	-270.499146	-170.875519
2801.958597	22.884863	-266.232605	-162.751602
2801.961927	22.651081	-261.849213	-157.082397
2801.965254	22.183519	-258.751617	-150.419647
2801.968594	21.423729	-254.485107	-143.698425
2801.971922	21.657511	-250.861481	-138.496780
2801.975249	20.897720	-246.945648	-132.418457
2801.978589	19.904150	-242.796021	-126.164810
2801.981922	20.371712	-239.055511	-122.307419
2801.985255	20.371712	-235.665710	-116.053772
2801.988591	19.845705	-231.866745	-111.378143
2801.991923	19.261251	-227.658676	-107.111633
2801.996526	19.027470	-221.989487	-97.468147
2801.999473	18.793688	-218.248993	-93.669197
2802.002768	18.618353	-213.807129	-90.104034
2802.006115	18.150789	-211.235519	-85.954407
2802.009462	18.209234	-207.202820	-81.395676
2802.012372	17.975454	-203.812988	-79.408531
2802.015721	16.923437	-200.949158	-75.784920
2802.019030	17.274109	-198.143784	-72.453537
2802.022344	16.689655	-194.870834	-68.771477
2802.025259	16.455873	-192.299240	-65.381645
2802.028583	15.988312	-188.617187	-62.400932
2802.031912	15.462303	-186.045593	-60.939800
2802.035292	15.754530	-183.473999	-57.316189
2802.038580	15.170076	-180.376389	-55.738163
2802.041918	14.936295	-177.921692	-51.880772
2802.045254	14.819405	-174.765640	-49.133839
2802.048580	14.410286	-172.077148	-48.549385
2802.051906	14.176506	-169.797775	-45.744007
2802.055248	13.124489	-167.226181	-43.464638
2802.058584	13.767387	-165.063705	-42.704849
2802.061917	13.241381	-163.310349	-39.607246
2802.065244	13.241381	-161.030975	-36.743423
2802.068575	12.773817	-159.277618	-35.983635
2802.071913	12.306253	-156.355347	-34.697838
2802.075246	12.364698	-154.601990	-33.002922
2802.078605	11.838690	-152.147278	-31.600231
2802.081909	11.488018	-150.744598	-30.840443
2802.085255	11.488018	-147.939224	-28.385738
2802.088583	10.669783	-146.419632	-26.924603
2802.093182	11.195791	-142.912918	-25.580360
2802.096100	11.195791	-141.276443	-24.294563
2802.099450	10.436003	-139.873749	-23.300993
2802.102795	10.728230	-138.763290	-21.313850
2802.106180	9.909994	-136.717712	-19.618935
