time (s)	det(V)
3147.726361	-1.621459	
3147.727923	-1.621459	
3147.729591	-1.621439	
3147.731183	-1.621620	
3147.732809	-1.621431	
3147.734414	-1.621540	
3147.736035	-1.621447	
3147.737676	-1.621504	
3147.739289	-1.621383	
3147.740930	-1.621536	
3147.742525	-1.621371	
3147.744212	-1.621536	
3147.745780	-1.621459	
3147.747475	-1.621415	
3147.748956	-1.621447	
3147.750519	-1.554259	
3147.752001	-1.394028	
3147.753636	-1.258290	
3147.755119	-1.148796	
3147.756697	-1.002540	
3147.758259	-0.866230	
3147.759799	-0.742593	
3147.761405	-0.612865	
3147.762888	-0.481098	
3147.764529	-0.345602	
3147.766084	-0.243178	
3147.767718	-0.093481	
3147.769238	0.047401	
3147.770959	0.189992	
3147.772447	0.314825	
3147.774139	0.487487	
3147.775622	0.606258	
3147.777340	0.746617	
3147.778832	0.874959	
3147.780557	1.019721	
3147.782056	1.116578	
3147.783826	1.251240	
3147.785305	1.368642	
3147.787085	1.476097	
3147.788570	1.580068	
3147.790336	1.629742	
3147.791828	1.632610	
3147.793620	1.632739	
3147.795104	1.632795	
3147.796880	1.632847	
3147.798378	1.632722	
3147.800141	1.632835	
3147.801651	1.632775	
3147.803395	1.632775	
3147.804919	1.632763	
3147.806679	1.632851	
3147.808209	1.632682	
3147.809945	1.632863	
3147.811472	1.632751	
3147.813187	1.632835	
3147.814735	1.632799	
3147.816417	1.632888	
3147.817978	1.632654	
3147.819656	1.632944	
3147.821251	1.632795	
3147.822908	1.632880	
3147.824497	1.632686	
3147.826137	1.632900	
3147.827721	1.632747	
3147.829345	1.632831	
3147.830995	1.632650	
3147.832614	1.632944	
3147.834293	1.632561	
3147.835895	1.632843	
3147.837535	1.632743	
3147.839123	1.632960	
3147.840789	1.632864	
3147.842370	1.632964	
3147.844069	1.632743	
3147.845633	1.632920	
3147.847348	1.632775	
3147.848906	1.633025	
3147.850610	1.632751	
3147.852152	1.632815	
3147.853861	1.632775	
3147.855361	1.632755	
3147.856915	1.632743	
3147.858424	1.632715	
3147.860016	1.632904	
3147.861538	1.632735	
3147.863093	1.632783	
3147.864699	1.632755	
3147.866192	1.632815	
3147.867826	1.632775	
3147.869388	1.632819	
3147.870997	1.632670	
3147.872492	1.632831	
3147.874206	1.632803	
3147.875680	1.632819	
3147.877415	1.632735	
3147.878882	1.632900	
3147.880584	1.632690	
3147.882110	1.632847	
3147.883839	1.632722	
3147.885320	1.632751	
3147.887093	1.632936	
3147.888584	1.632819	
3147.890357	1.632747	
3147.891842	1.632856	
3147.893633	1.632739	
3147.895114	1.632783	
3147.896880	1.632916	
3147.898368	1.632795	
3147.900129	1.632831	
3147.901642	1.632763	
3147.903417	1.632860	
3147.904935	1.632650	
3147.906667	1.632799	
3147.908184	1.632714	
3147.909906	1.632795	
3147.911443	1.632674	
3147.913125	1.632872	
3147.914686	1.632690	
3147.916383	1.632843	
3147.917959	1.632739	
3147.919640	1.632908	
3147.921221	1.632722	
3147.922882	1.632856	
3147.924479	1.632658	
3147.926135	1.632972	
3147.927743	1.632642	
3147.929373	1.632888	
3147.931005	1.632718	
3147.932639	1.632944	
3147.934283	1.632731	
3147.935901	1.632743	
3147.937543	1.630612	
3147.939122	1.584584	
3147.940823	1.530637	
3147.942392	1.480955	
3147.944081	1.420338	
3147.945650	1.380211	
3147.947361	1.335570	
3147.948918	1.281050	
3147.950626	1.242431	
3147.952117	1.217040	
3147.953766	1.177510	
3147.955253	1.124224	
3147.956878	1.106507	
3147.958371	1.087522	
3147.959962	1.046316	
3147.961503	1.004768	
3147.963049	0.988530	
3147.964641	0.958720	
3147.966223	0.903218	
3147.967830	0.886094	
3147.969372	0.855438	
3147.971001	0.825302	
3147.972507	0.792757	
3147.974201	0.793893	
3147.975679	0.756607	
3147.977420	0.726999	
3147.978993	0.708944	
3147.980670	0.690990	
3147.982237	0.643137	
3147.983952	0.632612	
3147.985512	0.613425	
3147.987248	0.583063	
3147.988777	0.549036	
3147.990503	0.556242	
3147.991990	0.534856	
3147.993737	0.504769	
3147.995224	0.495270	
3147.997009	0.478633	
3147.998497	0.450870	
3148.000275	0.425290	
3148.001761	0.425121	
3148.003522	0.404923	
3148.005020	0.386352	
3148.006757	0.377869	
3148.008271	0.377578	
3148.010012	0.348039	
3148.011546	0.340051	
3148.013289	0.325343	
3148.014808	0.313758	
3148.016514	0.282341	
3148.018061	0.273487	
3148.019757	0.267106	
3148.021315	0.259319	
3148.023008	0.237365	
3148.024599	0.247939	
3148.026245	0.221227	
3148.027828	0.217678	
3148.029475	0.211720	
3148.031074	0.215616	
3148.032707	0.177580	
3148.034317	0.178608	
3148.035935	0.169407	
3148.037610	0.161632	
3148.039208	0.137994	
3148.040873	0.166829	
3148.042472	0.141225	
3148.044121	0.129909	
3148.045609	0.132105	
3148.047166	0.131255	
3148.048670	0.111585	
3148.050290	0.100821	
3148.051796	0.105264	
3148.053394	0.093554	
3148.054931	0.090492	
3148.056510	0.079507	
3148.058049	0.096079	
3148.059542	0.082778	
3148.061188	0.087258	
3148.062754	0.080784	
3148.064368	0.076852	
3148.065908	0.050821	
3148.067587	0.065166	
3148.069066	0.054882	
3148.070798	0.049274	
3148.072373	0.042144	
3148.074079	0.057077	
3148.075637	0.052807	
3148.077328	0.054318	
3148.078880	0.045673	
3148.080592	0.048638	
3148.082143	0.027844	
3148.083876	0.022808	
3148.085387	0.029503	
3148.087142	0.027094	
3148.088627	0.021000	
3148.090397	0.038309	
3148.091879	0.036485	
3148.093660	0.023634	
3148.095155	0.019376	
3148.096943	0.024331	
3148.098425	0.019751	
3148.100200	0.008983	
3148.101689	0.018857	
3148.103460	0.015320	
3148.104959	0.005688	
3148.106701	0.010280	
3148.108226	0.019324	
3148.109949	0.012198	
3148.111483	0.012806	
3148.113192	0.019650	
3148.114729	0.022740	
3148.116434	-0.007609	
3148.117998	0.006518	
3148.119682	0.005797	
3148.121260	-0.001140	
3148.122912	0.000230	
3148.124519	0.022986	
3148.126173	0.009221	
3148.127752	0.008202	
3148.129393	0.010518	
3148.131008	0.023247	
3148.132634	-0.004339	
3148.134272	-0.003190	
3148.135855	0.001051	
3148.137530	-0.000052	
3148.139126	-0.012887	
3148.140772	0.014413	
3148.142263	0.009168	
3148.143916	0.003908	
3148.145414	0.007996	
3148.147050	0.011489	
3148.148555	0.000483	
3148.150193	-0.006002	
3148.151689	-0.002820	
3148.153268	-0.002155	
3148.154790	-0.008552	
3148.156403	-0.012564	
3148.157966	0.007199	
3148.159547	-0.002767	
3148.161145	-0.002590	
3148.162686	-0.001164	
3148.164314	0.012298	
3148.165825	-0.020279	
3148.167552	-0.010973	
3148.169146	-0.008923	
3148.170818	-0.008335	
3148.172397	-0.023102	
3148.174084	0.001539	
3148.175663	-0.002147	
3148.177365	-0.007469	
3148.178912	-0.006421	
3148.180621	0.003545	
3148.182170	-0.016323	
3148.183887	-0.016129	
3148.185407	-0.010031	
3148.187136	-0.010345	
3148.188629	-0.022075	
3148.190406	-0.006828	
3148.191895	-0.004226	
3148.193669	-0.011424	
3148.195153	-0.008762	
3148.196941	-0.000777	
3148.198428	-0.009370	
3148.200203	-0.021274	
3148.201685	-0.015243	
3148.203436	-0.016279	
3148.204960	-0.021088	
3148.206697	-0.017845	
3148.208213	-0.002989	
3148.209930	-0.012754	
3148.211463	-0.011662	
3148.213160	-0.010977	
3148.214714	-0.000358	
3148.216393	-0.023763	
3148.217965	-0.016580	
3148.219634	-0.011412	
3148.221208	-0.020927	
3148.222876	-0.029181	
3148.224461	0.000097	
3148.226102	-0.010582	
3148.227707	-0.011239	
3148.229327	-0.006308	
3148.230955	0.002131	
3148.232562	-0.019155	
3148.234241	-0.017277	
3148.235839	-0.012351	
3148.237492	-0.014985	
3148.238978	-0.023465	
3148.240619	0.000407	
3148.242115	0.001273	
3148.243727	-0.011303	
3148.245225	-0.002780	
3148.246851	0.001974	
3148.248347	0.001039	
3148.249937	-0.013547	
3148.251462	-0.004866	
3148.253081	-0.003412	
3148.254650	-0.007956	
3148.256245	-0.017986	
3148.257849	0.007847	
3148.259412	-0.000044	
3148.261024	-0.002091	
3148.262558	0.003247	
3148.264254	0.011295	
3148.265854	-0.015952	
3148.267540	-0.009503	
3148.269135	-0.001813	
3148.270783	-0.003718	
3148.272355	-0.015578	
3148.274036	0.007271	
3148.275593	0.006554	
3148.277295	0.001382	
3148.278834	0.003750	
3148.280548	0.015179	
3148.282082	0.006119	
3148.283801	0.004169	
3148.285304	0.013120	
3148.287075	0.009438	
3148.288568	0.000866	
3148.290365	0.001430	
3148.291850	0.017362	
3148.293615	0.004157	
3148.295095	0.006751	
3148.296858	0.009881	
3148.298343	0.010909	
3148.300083	-0.005990	
3148.301591	0.002699	
3148.303322	-0.002675	
3148.304847	-0.002876	
3148.306550	-0.005531	
3148.308093	0.015122	
3148.309789	0.001656	
3148.311332	0.003787	
3148.313008	0.006264	
3148.314575	0.016246	
3148.316248	-0.006361	
3148.317851	0.000556	
3148.319510	0.004359	
3148.321102	-0.001281	
3148.322742	-0.008516	
3148.324348	0.013088	
3148.325982	0.006582	
3148.327607	0.003775	
3148.329219	0.008278	
3148.330899	0.015787	
3148.332377	-0.008435	
3148.333946	-0.007622	
3148.335424	0.007702	
3148.337057	0.000902	
3148.338539	-0.004258	
3148.340169	-0.001732	
3148.341683	0.019320	
3148.343262	0.001426	
3148.344811	0.003448	
3148.346413	0.011755	
3148.347986	0.016911	
3148.349584	-0.006719	
3148.351181	0.000016	
3148.352740	0.002840	
3148.354337	-0.005479	
3148.355866	-0.014107	
3148.357541	0.015618	
3148.359166	0.007654	
3148.360845	0.004657	
3148.362418	0.008169	
3148.364095	0.017314	
3148.365650	0.001341	
3148.367347	0.002473	
3148.368909	0.008439	
3148.370587	0.003916	
3148.372144	-0.004911	
3148.373870	0.009970	
3148.375386	0.013483	
3148.377140	0.007634	
3148.378625	0.007195	
3148.380385	0.018144	
3148.381874	0.015126	
3148.383632	-0.000709	
3148.385111	0.006103	
3148.386881	0.008995	
3148.388370	0.003557	
3148.390132	-0.001821	
3148.391631	0.016798	
3148.393352	0.013692	
3148.394864	0.010740	
3148.396589	0.019441	
3148.398124	0.022269	
3148.399831	0.003811	
3148.401371	0.012709	
3148.403091	0.012895	
3148.404651	0.007883	
3148.406333	0.004858	
3148.407898	0.023034	
3148.409579	0.014554	
3148.411169	0.015606	
3148.412838	0.018752	
3148.414439	0.035296	
3148.416074	0.009628	
3148.417697	0.009108	
3148.419311	0.016597	
3148.420935	0.008335	
3148.422558	-0.000012	
3148.424248	0.030853	
3148.425835	0.022974	
3148.427494	0.021636	
3148.428975	0.018333	
3148.430630	0.032714	
3148.432104	0.021423	
3148.433757	0.012842	
3148.435239	0.021012	
3148.436897	0.016633	
3148.438390	0.007316	
3148.439963	-0.000230	
3148.441500	0.026917	
3148.443125	0.017499	
3148.444681	0.021515	
3148.446295	0.016033	
3148.447878	0.032674	
3148.449458	0.001446	
3148.451075	0.009265	
3148.452617	0.004689	
3148.454256	-0.002643	
3148.455869	-0.012701	
3148.457530	0.007110	
3148.459119	0.001043	
3148.460807	0.003855	
3148.462382	0.000983	
3148.464070	0.012923	
3148.465659	-0.012484	
3148.467351	-0.014506	
3148.468915	-0.010091	
3148.470633	-0.009269	
3148.472166	-0.021258	
3148.473877	-0.010631	
3148.475408	-0.010433	
3148.477144	-0.014985	
3148.478645	-0.019114	
3148.480397	-0.014752	
3148.481890	-0.018252	
3148.483666	-0.033016	
3148.485146	-0.028500	
3148.486929	-0.033270	
3148.488413	-0.037673	
3148.490155	-0.041198	
3148.491649	-0.028057	
3148.493387	-0.039482	
3148.494898	-0.040553	
3148.496625	-0.037830	
3148.498157	-0.037314	
3148.499884	-0.062447	
3148.501416	-0.050044	
3148.503137	-0.056521	
3148.504685	-0.063962	
3148.506378	-0.069142	
3148.507941	-0.044855	
3148.509630	-0.064336	
3148.511216	-0.070399	
3148.512895	-0.066141	
3148.514458	-0.061279	
3148.516103	-0.092345	
3148.517690	-0.084945	
3148.519309	-0.089272	
3148.520929	-0.099165	
3148.522525	-0.108293	
3148.524195	-0.090980	
3148.525678	-0.097433	
3148.527331	-0.109893	
3148.528805	-0.109361	
3148.530450	-0.107749	
3148.531933	-0.115520	
3148.533587	-0.133841	
3148.535094	-0.129301	
3148.536693	-0.135630	
3148.538226	-0.144746	
3148.539876	-0.151815	
3148.541413	-0.138123	
3148.543030	-0.149382	
3148.544609	-0.157870	
3148.546208	-0.161975	
3148.547790	-0.156190	
3148.549350	-0.188155	
3148.550966	-0.193347	
3148.552610	-0.199229	
3148.554257	-0.206153	
3148.555850	-0.228559	
3148.557522	-0.213594	
3148.559123	-0.226355	
3148.560799	-0.241482	
3148.562381	-0.250888	
3148.564058	-0.255085	
3148.565633	-0.277853	
3148.567331	-0.292609	
3148.568880	-0.297721	
3148.570592	-0.310567	
3148.572128	-0.330089	
3148.573832	-0.335805	
3148.575344	-0.341207	
3148.577063	-0.366001	
3148.578556	-0.376882	
3148.580334	-0.394026	
3148.581817	-0.410595	
3148.583593	-0.439453	
3148.585075	-0.448006	
3148.586834	-0.469666	
3148.588320	-0.493880	
3148.590067	-0.522324	
3148.591577	-0.518030	
3148.593322	-0.551747	
3148.594841	-0.575711	
3148.596601	-0.597936	
3148.598123	-0.621864	
3148.599841	-0.665708	
3148.601368	-0.689636	
3148.603072	-0.720646	
3148.604616	-0.754613	
3148.606298	-0.789772	
3148.607870	-0.802107	
3148.609521	-0.838833	
3148.611103	-0.877151	
3148.612749	-0.909957	
3148.614338	-0.932455	
3148.615989	-0.991309	
3148.617609	-1.025461	
3148.619216	-1.060057	
3148.620870	-1.105045	
3148.622355	-1.154730	
3148.623998	-1.176229	
3148.625476	-1.214736	
3148.627122	-1.262089	
3148.628604	-1.307444	
3148.630253	-1.348315	
3148.631754	-1.392111	
3148.633342	-1.452383	
3148.634877	-1.499103	
3148.636491	-1.541924	
3148.638033	-1.586989	
3148.639651	-1.617499	
3148.641238	-1.621504	
3148.642834	-1.621343	
3148.644428	-1.621455	
3148.645985	-1.621290	
3148.647610	-1.621524	
3148.649246	-1.621435	
3148.650889	-1.621483	
3148.652492	-1.621326	
3148.654173	-1.621520	
3148.655754	-1.621274	
3148.657438	-1.621552	
3148.659030	-1.621419	
3148.660690	-1.621508	
3148.662265	-1.621415	
3148.663974	-1.621471	
3148.665513	-1.621399	
3148.667234	-1.621471	
3148.668773	-1.621379	
3148.670486	-1.621649	
3148.672001	-1.621443	
3148.673743	-1.621508	
3148.675231	-1.621431	
3148.676996	-1.621455	
3148.678492	-1.621451	
3148.680251	-1.621532	
3148.681731	-1.621492	
3148.683500	-1.621407	
3148.684976	-1.621492	
3148.686730	-1.621536	
3148.688236	-1.621500	
3148.689985	-1.621512	
3148.691501	-1.621653	
3148.693244	-1.621500	
3148.694775	-1.621508	
3148.696471	-1.621467	
3148.698012	-1.621508	
3148.699703	-1.621435	
3148.701263	-1.621504	
3148.702958	-1.621383	
3148.704516	-1.621528	
3148.706183	-1.621399	
3148.707777	-1.621435	
3148.709420	-1.621455	
3148.711018	-1.621552	
3148.712649	-1.621399	
3148.714256	-1.621657	
3148.715782	-1.621580	
3148.717427	-1.621423	
3148.718908	-1.621564	
3148.720557	-1.621600	
3148.722040	-1.621524	
3148.723673	-1.621552	
3148.725154	-1.621568	
3148.726786	-1.621407	
3148.728284	-1.621540	
3148.729956	-1.621427	
3148.731477	-1.621588	
3148.733123	-1.621443	
3148.734677	-1.621556	
3148.736284	-1.621435	
3148.737867	-1.621512	
3148.739436	-1.621447	
3148.741042	-1.621552	
3148.742680	-1.621387	
3148.744298	-1.621584	
3148.745928	-1.621419	
3148.747557	-1.621592	
3148.749157	-1.621415	
3148.750838	-1.621612	
3148.752428	-1.621391	
3148.754100	-1.621484	
3148.755697	-1.621520	
3148.757357	-1.621536	
3148.758937	-1.621407	
3148.760623	-1.621484	
3148.762181	-1.621435	
3148.763883	-1.621520	
3148.765431	-1.621447	
3148.767149	-1.621459	
3148.768663	-1.621403	
3148.770391	-1.621504	
3148.771878	-1.621472	
3148.773656	-1.621483	
3148.775144	-1.621459	
3148.776927	-1.621391	
3148.778413	-1.621411	
3148.780205	-1.621500	
3148.781682	-1.621443	
3148.783436	-1.621504	
3148.784938	-1.621423	
3148.786676	-1.621459	
3148.788202	-1.621427	
3148.789952	-1.621447	
3148.791470	-1.596963	
3148.793205	-1.448588	
3148.794737	-1.317112	
3148.796448	-1.168821	
3148.798002	-1.032334	
3148.799700	-0.929394	
3148.801249	-0.786348	
3148.802928	-0.637876	
3148.804512	-0.513204	
3148.806185	-0.412589	
3148.807768	-0.265712	
3148.809421	-0.133305	
3148.810999	-0.002046	
3148.812529	0.113744	
3148.814178	0.261051	
3148.815664	0.370839	
3148.817327	0.506944	
3148.818803	0.639032	
3148.820451	0.766307	
3148.821927	0.895064	
3148.823573	1.041889	
3148.825057	1.182868	
3148.826727	1.296563	
3148.828228	1.415399	
3148.829888	1.538404	
3148.831422	1.618438	
3148.833043	1.632815	
3148.834606	1.632666	
3148.836209	1.632876	
3148.837794	1.632730	
3148.839451	1.632751	
3148.841053	1.632763	
3148.842711	1.632968	
3148.844322	1.632706	
3148.845957	1.632968	
3148.847581	1.632666	
3148.849205	1.632763	
3148.850881	1.632783	
3148.852494	1.632928	
3148.854161	1.632706	
3148.855779	1.632912	
3148.857453	1.632662	
3148.859040	1.632932	
3148.860718	1.632755	
3148.862280	1.632920	
3148.863970	1.632771	
3148.865537	1.632868	
3148.867209	1.632783	
3148.868766	1.632771	
3148.870494	1.632686	
3148.872013	1.632791	
3148.873773	1.632779	
3148.875260	1.632835	
3148.877040	1.632867	
3148.878523	1.632839	
3148.880296	1.632751	
3148.881783	1.632835	
3148.883545	1.632714	
3148.885035	1.632799	
3148.886804	1.632876	
3148.888290	1.632859	
3148.890060	1.632847	
3148.891556	1.632698	
3148.893312	1.632783	
3148.894834	1.632823	
3148.896567	1.632892	
3148.898099	1.632819	
3148.899834	1.632884	
3148.901365	1.632638	
3148.903074	1.633041	
3148.904641	1.632735	
3148.906141	1.632723	
3148.907822	1.632706	
3148.909301	1.632795	
3148.910928	1.632811	
3148.912456	1.632678	
3148.914098	1.632876	
3148.915581	1.632755	
3148.917225	1.632755	
3148.918710	1.632723	
3148.920418	1.632835	
3148.921904	1.632811	
3148.923611	1.632835	
3148.925105	1.632634	
3148.926817	1.632851	
3148.928310	1.632722	
3148.929992	1.632892	
3148.931497	1.632727	
3148.933242	1.632940	
3148.934769	1.632787	
3148.936477	1.632859	
3148.938005	1.632731	
3148.939695	1.632985	
3148.941245	1.632698	
3148.942926	1.632839	
3148.944512	1.632771	
3148.946167	1.633085	
3148.947755	1.632715	
3148.949408	1.632888	
3148.951012	1.632602	
3148.952663	1.632888	
3148.954273	1.632715	
3148.955892	1.632863	
3148.957528	1.632747	
3148.959122	1.632884	
3148.960792	1.632694	
3148.962397	1.632847	
3148.964069	1.632598	
3148.965664	1.632835	
3148.967358	1.632646	
3148.968918	1.632815	
3148.970640	1.632690	
3148.972183	1.632666	
3148.973892	1.632715	
3148.975451	1.632859	
3148.977154	1.632743	
3148.978702	1.632819	
3148.980439	1.632485	
3148.981938	1.627292	
3148.983707	1.546512	
3148.985191	1.490112	
3148.986970	1.446308	
3148.988451	1.400586	
3148.990246	1.356227	
3148.991747	1.333173	
3148.993536	1.275245	
3148.995011	1.243772	
3148.996796	1.213628	
3148.998286	1.183573	
3149.000053	1.124860	
3149.001563	1.095006	
3149.003133	1.062337	
3149.004699	1.026380	
3149.006199	0.986266	
3149.007838	0.984836	
3149.009330	0.953431	
3149.010966	0.915359	
3149.012494	0.885779	
3149.014140	0.872897	
3149.015619	0.832021	
3149.017339	0.800000	
3149.018830	0.783391	
3149.020549	0.753957	
3149.022033	0.724763	
3149.023754	0.696948	
3149.025243	0.698885	
3149.026943	0.659190	
3149.028425	0.638863	
3149.030196	0.628656	
3149.031679	0.613481	
3149.033440	0.563207	
3149.034940	0.554091	
3149.036710	0.545773	
3149.038219	0.520092	
3149.039990	0.490734	
3149.041501	0.491097	
3149.043226	0.470234	
3149.044757	0.447276	
3149.046484	0.440005	
3149.048008	0.425012	
3149.049739	0.397301	
3149.051296	0.390880	
3149.052983	0.382215	
3149.054535	0.365731	
3149.056215	0.338528	
3149.057794	0.343495	
3149.059466	0.324296	
3149.061052	0.305915	
3149.062692	0.299284	
3149.064300	0.302825	
3149.065930	0.264169	
3149.067560	0.252894	
3149.069178	0.250513	
3149.070837	0.241135	
3149.072440	0.214883	
3149.074104	0.228394	
3149.075684	0.221670	
3149.077367	0.206749	
3149.078943	0.194814	
3149.080629	0.200800	
3149.082193	0.178797	
3149.083863	0.161862	
3149.085419	0.161153	
3149.087133	0.152750	
3149.088655	0.149108	
3149.090407	0.130755	
3149.091893	0.146131	
3149.093672	0.121869	
3149.095151	0.125277	
3149.096701	0.125490	
3149.098235	0.129704	
3149.099802	0.098073	
3149.101348	0.098911	
3149.102875	0.099399	
3149.104497	0.086158	
3149.105991	0.078834	
3149.107636	0.096716	
3149.109186	0.096684	
3149.110840	0.083447	
3149.112337	0.079596	
3149.114053	0.080647	
3149.115534	0.074294	
3149.117247	0.062125	
3149.118738	0.060360	
3149.120464	0.063539	
3149.121995	0.047244	
3149.123733	0.050366	
3149.125234	0.063797	
3149.127004	0.052155	
3149.128486	0.050217	
3149.130251	0.048992	
3149.131751	0.054052	
3149.133538	0.036327	
3149.135022	0.043872	
3149.136818	0.034861	
3149.138300	0.033435	
3149.140066	0.032247	
3149.141568	0.052582	
3149.143315	0.037419	
3149.144830	0.034438	
3149.146585	0.046966	
3149.148116	0.046753	
3149.149846	0.017688	
3149.151380	0.021459	
3149.153085	0.020984	
3149.154632	0.018909	
3149.156327	0.009889	
3149.157895	0.036134	
3149.159585	0.033326	
3149.161169	0.031159	
3149.162846	0.035159	
3149.164430	0.044577	
