time (s)	magX	magY	magZ
1728.680140	64.556404	-86.104034	-987.473999
1728.683522	63.270607	-68.395088	-987.649292
1728.686372	62.569260	-49.108124	-986.655762
1728.689720	60.815903	-30.347166	-984.200989
1728.693017	59.413208	-11.703098	-982.213928
1728.696348	57.309174	7.057860	-977.830444
1728.699265	55.322033	26.111046	-973.037964
1728.702595	54.094685	45.047340	-966.725830
1728.705925	52.282875	63.574516	-959.770874
1728.709262	50.646408	81.926361	-951.588562
1728.712595	48.600815	99.985970	-943.990662
1728.715930	46.730564	118.279373	-933.821106
1728.719277	44.743423	135.871429	-923.885498
1728.722590	43.282291	153.463470	-914.943237
1728.725922	41.528931	170.120392	-903.195801
1728.729254	39.483345	186.309753	-887.883118
1728.732600	37.846874	203.083588	-876.544678
1728.735922	35.976620	218.454697	-863.452942
1728.739255	34.515488	233.007599	-848.315613
1728.742593	33.229691	247.151367	-834.990051
1728.745921	31.827003	260.418457	-819.852722
1728.749251	30.658096	273.802460	-805.416687
1728.752590	29.722969	286.251312	-790.922241
1728.755922	28.261833	297.881927	-773.856201
1728.759286	26.976036	308.869659	-758.485046
1728.762613	25.339567	318.513153	-740.834595
1728.767189	22.709528	338.150787	-708.981873
1728.770112	22.183519	346.800720	-694.721191
1728.773455	20.956165	353.872589	-677.362915
1728.776840	19.962595	362.230286	-661.056702
1728.780197	18.092344	368.133270	-644.049072
1728.783034	16.923437	374.153137	-626.807678
1728.786368	15.812975	379.530090	-612.313232
1728.789756	14.819405	384.965515	-595.013428
1728.793006	13.124489	388.180023	-580.168335
1728.795919	12.715372	391.336060	-563.511353
1728.799249	10.728230	395.953247	-548.841614
1728.802583	9.793104	395.953247	-532.593811
1728.805954	8.741087	399.050842	-517.222656
1728.809251	7.689071	400.628845	-501.500916
1728.812581	6.403272	401.154907	-487.064911
1728.815915	5.175921	401.739319	-472.628876
1728.819268	3.714787	401.973114	-457.666870
1728.822584	2.487434	401.856232	-443.815308
1728.825912	2.195208	400.921112	-429.145538
1728.829248	0.149620	400.044434	-416.462891
1728.832585	-0.551724	398.057281	-402.786682
1728.835914	-0.843951	395.602570	-389.870239
1728.839253	-1.720631	395.310364	-378.414978
1728.842577	-3.064874	391.569855	-365.323212
1728.845913	-3.941555	389.641144	-352.991241
1728.849265	-5.753361	386.601990	-340.542389
1728.852579	-6.454705	382.978363	-329.613098
1728.855911	-7.272940	381.225006	-318.917603
1728.859255	-7.623612	378.536530	-308.222076
1728.863863	-8.909410	370.587982	-288.058441
1728.866805	-9.552309	365.853882	-278.239624
1728.870091	-9.786091	362.639404	-268.946808
1728.873460	-10.428989	359.015778	-259.127991
1728.876341	-10.487434	354.457031	-249.776733
1728.879689	-10.487434	350.482758	-241.711273
1728.883016	-11.539452	345.339569	-233.119812
1728.886390	-11.305669	341.891296	-225.112793
1728.889263	-11.188778	336.280548	-217.164246
1728.892586	-11.539452	333.767395	-208.923431
1728.895912	-11.071888	329.150208	-201.676208
1728.899236	-11.539452	324.182343	-194.312103
1728.902570	-11.948568	319.915833	-187.357086
1728.905911	-11.831678	315.532440	-180.694336
1728.909238	-11.714787	311.382812	-173.563995
1728.912571	-11.481005	306.531860	-167.777908
1728.915912	-11.597897	301.739349	-162.751602
1728.919240	-11.364115	297.765045	-155.504395
1728.922568	-11.071888	293.673859	-151.179413
1728.925909	-11.364115	289.348907	-145.451782
1728.929273	-11.422560	284.439514	-139.957916
1728.932569	-11.656342	280.699005	-134.873169
1728.935907	-11.481005	276.549377	-130.255981
1728.939241	-12.240795	272.458221	-125.288139
1728.942568	-11.656342	268.776154	-121.080070
1728.945901	-11.656342	264.334290	-116.638222
1728.949236	-12.533022	260.652252	-112.605492
1728.952569	-12.533022	256.327301	-107.579193
1728.955900	-12.357685	252.762131	-103.546463
1728.960173	-12.240795	245.339554	-95.656342
1728.963414	-12.591467	241.715958	-93.435417
1728.966762	-12.533022	237.624786	-89.110458
1728.970079	-12.883694	234.644073	-86.363525
1728.973023	-13.292810	231.546478	-82.973694
1728.976322	-12.591467	227.981308	-79.525421
1728.979680	-12.591467	224.766800	-77.129166
1728.983016	-13.175920	221.669189	-74.849792
1728.985900	-13.059031	219.097610	-71.518410
1728.989231	-12.825249	215.590881	-69.122147
1728.992575	-12.942139	211.967285	-65.966103
1728.995899	-12.591467	209.337234	-63.569839
1728.999232	-12.708357	206.473404	-61.524254
1729.002565	-13.175920	203.609589	-58.718876
1729.005895	-12.766804	201.330215	-57.491524
1729.009222	-12.708357	198.641724	-54.686146
1729.012565	-12.474577	195.427246	-52.699005
1729.015937	-12.416130	192.738754	-50.419636
1729.019226	-13.175920	190.751617	-47.906487
1729.022566	-12.766804	188.589127	-46.386906
1729.025897	-12.708357	185.491531	-44.516655
1729.029230	-12.708357	183.387497	-42.529514
1729.032563	-12.649912	181.575699	-42.061951
1729.035892	-12.240795	178.887207	-39.431908
1729.039225	-11.831678	176.257156	-38.613674
1729.042561	-11.890123	174.912918	-37.386322
1729.045891	-11.597897	172.165985	-35.866745
1729.049223	-11.422560	170.354172	-33.645821
1729.052561	-11.539452	168.425476	-33.528931
1729.056838	-11.656342	165.561661	-30.548216
1729.060114	-11.188778	163.691406	-29.028637
1729.063407	-11.597897	161.470490	-28.210402
1729.066778	-11.773232	159.483337	-27.450613
1729.069647	-11.364115	158.139099	-26.749268
1729.072983	-11.305669	156.385742	-25.346579
1729.076315	-10.954997	154.983063	-24.236118
1729.079666	-11.305669	153.054352	-23.651665
1729.082559	-11.539452	152.411469	-22.248976
1729.085887	-11.305669	150.774979	-21.839859
1729.089220	-11.422560	148.495621	-20.904734
1729.092589	-11.130333	147.209824	-20.378725
1729.095885	-11.305669	146.333130	-18.917591
1729.099223	-11.422560	145.398010	-17.982464
1729.102586	-11.247223	144.170670	-17.690239
1729.105887	-11.539452	142.767960	-17.398010
1729.109222	-10.954997	141.832840	-16.579777
1729.112553	-11.364115	140.371719	-14.943306
1729.115882	-10.896551	139.436584	-15.001751
1729.119213	-11.364115	138.618347	-14.884861
1729.122551	-11.422560	137.390991	-14.183517
1729.125886	-11.714787	136.689651	-13.423729
1729.129220	-11.130333	135.520752	-13.189945
1729.132545	-11.481005	134.585617	-12.137932
1729.135884	-11.481005	133.592041	-11.962593
1729.139214	-11.890123	132.656921	-11.787258
1729.142554	-11.948568	131.955582	-11.728813
1729.145906	-11.831678	131.371124	-11.378139
1729.150141	-11.422560	130.260666	-10.852131
1729.153473	-11.305669	129.617767	-10.209232
1729.156737	-11.247223	128.565750	-8.631207
1729.160063	-11.071888	127.981293	-9.098770
1729.163393	-11.422560	127.455292	-10.092342
1729.166311	-11.422560	127.104614	-9.215660
1729.169638	-11.071888	126.695496	-7.637638
1729.172988	-11.422560	125.877258	-8.748096
1729.176324	-11.247223	125.059036	-7.462299
1729.179214	-11.597897	124.708351	-7.871418
1729.182544	-11.656342	123.831680	-7.929863
1729.185923	-11.130333	123.773232	-7.812973
1729.189255	-10.779661	123.656342	-7.462299
1729.192544	-10.662770	122.955002	-7.579193
1729.195887	-11.013442	123.539444	-6.293396
1729.199214	-11.247223	122.662773	-7.403854
1729.202547	-11.188778	122.604324	-7.812973
1729.205882	-10.954997	122.896553	-7.462299
1729.209212	-11.481005	122.662773	-6.877846
1729.212547	-11.071888	122.428986	-6.760956
1729.215875	-11.305669	122.253654	-7.462299
1729.219209	-11.597897	122.662773	-7.170074
1729.222545	-11.188778	122.253654	-7.345409
1729.225872	-11.305669	122.312096	-7.462299
1729.229206	-11.422560	122.019875	-6.702511
1729.232565	-11.188778	121.961426	-6.118057
1729.235872	-11.481005	121.786095	-6.410286
1729.239215	-11.247223	122.253654	-6.936295
1729.242544	-11.422560	122.487434	-6.936295
1729.246798	-12.007013	122.662773	-6.234947
1729.250123	-11.890123	122.428986	-7.053185
1729.253387	-12.182350	123.071884	-6.936295
1729.256735	-12.065458	122.896553	-7.053185
1729.260052	-12.123905	123.188782	-7.462299
1729.262967	-12.474577	123.773232	-7.228519
1729.266300	-12.299240	124.299240	-7.286964
1729.269626	-12.357685	124.416122	-7.637638
1729.272534	-13.175920	124.474571	-8.280537
1729.275882	-12.825249	125.351265	-7.988308
1729.279200	-12.708357	125.994156	-7.988308
1729.282541	-13.117476	126.052612	-8.397427
1729.285898	-12.942139	126.578598	-8.572762
1729.289213	-13.292810	127.046173	-9.507889
1729.292533	-13.468147	127.805954	-9.917004
1729.295873	-13.175920	128.098190	-9.741669
1729.299200	-13.643482	128.682632	-9.683224
1729.302536	-13.175920	129.676208	-9.917004
1729.305871	-13.351255	130.143768	-10.150787
1729.309200	-13.468147	130.494446	-10.793686
1729.312529	-13.818819	131.371124	-10.676796
1729.315863	-14.169493	132.014023	-11.728813
1729.319212	-13.818819	133.066040	-13.073055
1729.322534	-14.169493	134.001175	-13.423729
1729.325862	-13.935711	134.936295	-13.774399
1729.329196	-14.461718	134.877853	-13.365284
1729.332530	-14.052601	136.514313	-15.060196
1729.335857	-14.461718	137.507889	-15.001751
1729.339194	-14.578609	138.735245	-15.060196
1729.343451	-14.987726	141.131500	-16.813557
1729.346778	-15.046171	142.125076	-16.988892
1729.350100	-15.396843	143.469315	-17.631790
1729.353368	-14.812391	144.521332	-18.099354
1729.356285	-14.812391	146.099350	-19.034481
1729.359618	-15.455290	146.625366	-19.443596
1729.362982	-15.981298	148.729401	-19.852715
1729.366292	-16.156633	149.898300	-21.606077
1729.369189	-16.098188	151.359436	-22.132086
1729.372522	-16.390415	152.645248	-22.599648
1729.375858	-16.273525	153.580368	-23.710110
1729.379194	-16.974869	155.567505	-24.645235
1729.382527	-17.208651	157.496201	-24.820572
1729.385864	-17.500877	158.723557	-26.632376
1729.389215	-17.267096	159.834015	-27.509058
1729.392555	-17.500877	162.580948	-27.684395
1729.395852	-18.143776	163.925201	-29.554646
1729.399193	-18.377556	166.029221	-30.723551
1729.402519	-18.845119	168.133255	-32.476913
1729.405871	-18.845119	169.652832	-34.405609
1729.409193	-19.546465	171.873764	-34.464054
1729.412523	-19.546465	173.042664	-35.866745
1729.415854	-20.540035	175.146698	-37.327877
1729.419184	-20.773817	177.426071	-37.678551
1729.422523	-20.715370	180.640564	-40.191700
1729.425852	-20.773817	182.277039	-40.308590
1729.429187	-21.533606	184.556396	-43.815311
1729.432525	-21.942722	186.777313	-44.399765
1729.436747	-22.118059	192.446518	-47.848042
1729.440140	-22.994740	194.082993	-50.361191
1729.443441	-23.345411	196.245468	-53.049675
1729.446706	-23.579193	199.635284	-55.971943
1729.450039	-23.403856	201.505539	-57.666859
1729.452943	-23.579193	205.012268	-59.595558
1729.456281	-24.455873	207.934540	-63.043831
1729.459620	-24.806545	210.623032	-63.862068
1729.462520	-24.631210	213.428406	-67.427231
1729.465874	-25.741671	217.110474	-69.297485
1729.469180	-26.033897	220.850967	-72.219749
1729.472516	-26.384569	223.247223	-74.908241
1729.475848	-26.443016	226.227921	-78.005844
1729.479194	-27.202805	229.091766	-81.454117
1729.482512	-27.378141	232.890701	-84.610168
1729.485856	-27.436586	235.929871	-87.473991
1729.489191	-27.495031	238.618347	-91.623611
1729.492515	-28.196375	243.118637	-94.896545
1729.495847	-29.073057	246.450012	-98.052597
1729.499178	-29.715956	250.365875	-101.442429
1729.502519	-30.241964	252.762131	-105.592049
1729.505848	-31.118643	257.437744	-108.864990
1729.509217	-31.177090	260.710693	-114.475739
1729.512516	-32.053768	264.626526	-118.040909
1729.515845	-32.229107	268.542358	-122.658096
1729.519176	-33.456459	272.750458	-127.625954
1729.522512	-33.807129	275.497375	-132.360016
1729.525845	-34.742256	279.997650	-137.210983
1729.529179	-35.092926	284.030396	-142.997070
1729.533386	-37.372299	292.504974	-154.277039
1729.536760	-37.956749	295.602570	-159.186432
1729.540101	-39.125656	300.102844	-164.738754
1729.543366	-40.294563	304.310913	-171.401520
1729.546270	-40.411453	307.876099	-177.012268
1729.549599	-41.229691	312.960846	-184.434845
1729.552963	-42.164814	317.110474	-191.506714
1729.556273	-43.450611	321.201630	-198.812378
1729.559172	-44.444187	325.175934	-205.241364
1729.562502	-44.385742	329.267090	-212.839264
1729.565848	-46.372883	333.708923	-220.437164
1729.569176	-46.781998	337.332550	-229.087067
1729.572508	-48.126244	341.306824	-236.509644
1729.575840	-48.360023	346.040924	-245.919342
1729.579170	-49.704266	349.606079	-254.510803
1729.582507	-50.522499	354.690826	-263.920532
1729.585843	-51.691406	357.437744	-273.505554
1729.589192	-51.866745	362.230286	-282.798370
1729.592559	-52.568089	365.094086	-292.675629
1729.595857	-53.853889	369.594391	-302.611328
1729.599171	-54.847454	373.276459	-313.131500
1729.602501	-55.548798	376.081818	-324.060791
1729.605835	-55.957920	379.179443	-334.814728
1729.609176	-57.535942	382.978363	-346.854492
1729.612500	-57.886612	385.023956	-359.829346
1729.615833	-58.821743	386.543549	-371.109314
1729.619168	-59.639980	389.758026	-384.317963
1729.622498	-60.575104	391.569855	-396.416138
1729.627195	-62.094681	394.667419	-422.833435
1729.630045	-63.263588	395.719452	-436.743439
1729.633466	-64.724724	395.135010	-450.068970
1729.636761	-65.192284	396.537689	-464.154297
1729.639656	-66.419640	395.894775	-477.421387
1729.642928	-67.120987	394.784332	-494.019897
1729.646257	-68.523666	393.849213	-507.637665
1729.649589	-69.283463	392.446533	-523.534790
1729.652923	-70.744591	391.452942	-538.613647
1729.655828	-71.679718	387.887787	-552.757446
1729.659167	-72.907074	386.426636	-569.589661
1729.662500	-73.433075	382.335480	-585.895935
1729.665833	-74.835762	377.952087	-600.390442
1729.669169	-76.355347	374.328461	-618.040894
1729.672503	-76.647575	368.951477	-632.418396
1729.675851	-77.933372	362.697845	-649.718262
1729.679158	-79.043839	355.450592	-665.264709
1729.682494	-80.388077	348.670959	-681.044983
1729.685831	-81.206306	340.839264	-696.825256
1729.689157	-82.901230	332.773804	-713.715942
1729.692487	-82.842781	323.364105	-729.788452
1729.695862	-83.894798	313.954407	-744.691956
1729.699156	-84.479248	304.369385	-761.641113
1729.702496	-85.355934	292.738739	-776.369385
1729.705828	-85.881943	281.166565	-790.863770
1729.709157	-86.700180	269.185272	-805.124451
1729.712493	-87.109291	256.561066	-820.787842
1729.715822	-87.635300	243.060211	-834.697815
1729.719184	-87.401520	229.500870	-848.023315
1729.723792	-86.992401	200.453537	-875.375793
1729.726730	-87.167740	184.497955	-888.701294
1729.730050	-86.817070	168.308594	-902.143799
1729.733446	-85.414383	150.950317	-914.125061
1729.736267	-85.122154	134.293396	-923.651611
1729.739610	-84.829918	116.935120	-933.353516
1729.742945	-84.479248	99.635300	-943.347778
1729.746250	-83.193451	81.108124	-950.361206
1729.749159	-82.609001	63.457626	-960.004639
1729.752486	-81.381645	44.930450	-965.849121
1729.755819	-79.862068	26.403273	-972.979492
1729.759160	-79.686729	8.635885	-978.064270
1729.762531	-78.225601	-11.469316	-980.752808
1729.765824	-77.348915	-29.587376	-987.181763
1729.769157	-75.186440	-47.530098	-985.253052
1729.772487	-74.485092	-66.524841	-988.116882
1729.775822	-73.433075	-84.642899	-988.058411
1729.779153	-72.848625	-102.994743	-986.363525
1729.782485	-71.387497	-120.528351	-987.357056
1729.785817	-70.277031	-138.646393	-982.506104
1729.789151	-69.225014	-154.952652	-980.577393
1729.792479	-67.822327	-171.375793	-973.797729
1729.795815	-66.594971	-188.149612	-968.479187
1729.799195	-65.367622	-204.455872	-961.699585
1729.802489	-64.783173	-219.943878	-953.341919
1729.805851	-63.789593	-233.035660	-944.867371
1729.809152	-62.153126	-247.822327	-936.042053
1729.812493	-60.516655	-259.978973	-928.327271
1729.815813	-59.464638	-274.005829	-915.644653
1729.819998	-57.828171	-297.559326	-891.798889
1729.823329	-56.893044	-310.358856	-878.707153
1729.826685	-55.081238	-320.879028	-867.135010
1729.830047	-54.204559	-330.931610	-852.523621
1729.832924	-52.743423	-339.289307	-838.788940
1729.836267	-51.516071	-347.939240	-822.365845
1729.839641	-49.645821	-356.063141	-806.936279
1729.842934	-48.652248	-365.648163	-790.571594
1729.845812	-47.483345	-370.908234	-774.908264
1729.849174	-45.846874	-377.454102	-759.829285
1729.852480	-44.385742	-383.766235	-743.055542
1729.855830	-43.099941	-387.915863	-726.690796
1729.859152	-41.405025	-394.052612	-708.748108
1729.862482	-39.476330	-397.267090	-693.201599
1729.865812	-38.132088	-401.592041	-675.784912
1729.869147	-37.196960	-403.754517	-658.894165
1729.872477	-35.034481	-407.085907	-642.412598
1729.875809	-33.807129	-408.196350	-624.995850
1729.879146	-31.819988	-409.423737	-609.157227
1729.882480	-30.592636	-412.112244	-591.857361
1729.885805	-28.488604	-411.235535	-576.544678
1729.889138	-27.611921	-412.229095	-560.647583
1729.892493	-25.858562	-412.345978	-543.172424
1729.895812	-24.455873	-412.404449	-526.340149
1729.899138	-24.105202	-412.579773	-511.378143
1729.902477	-22.644068	-411.235535	-496.240814
1729.905836	-21.241379	-410.651062	-482.681488
1729.909138	-20.189363	-406.969025	-468.011688
1729.913748	-18.962009	-404.397430	-438.379883
1729.916693	-17.559322	-402.059601	-425.112793
1729.919985	-16.624197	-400.189362	-411.787262
1729.923344	-16.098188	-397.910004	-398.344849
1729.926228	-15.630625	-394.344818	-385.486847
1729.929577	-14.753944	-390.954987	-372.570435
1729.932927	-14.227938	-388.850983	-360.822937
1729.936291	-13.818819	-386.454712	-349.075409
1729.939133	-13.526592	-381.779083	-336.451202
1729.942472	-13.000584	-378.097015	-325.521942
1729.945805	-12.240795	-374.356506	-314.534210
1729.949132	-12.240795	-372.194031	-303.546448
1729.952466	-11.890123	-367.752197	-293.902985
1729.955804	-11.130333	-363.661041	-284.551727
1729.959135	-10.896551	-360.329620	-275.609589
1729.962464	-10.662770	-357.407349	-265.790771
1729.965804	-9.610754	-352.673279	-257.491516
1729.969129	-9.961426	-347.296295	-248.432495
1729.972466	-9.552309	-343.380463	-239.899475
1729.975800	-9.493863	-340.107544	-232.126251
1729.979157	-9.727645	-336.308594	-223.826996
1729.982467	-8.850965	-332.568085	-216.988892
1729.985797	-8.617184	-328.301575	-209.332550
1729.989137	-8.675629	-323.801270	-202.845123
1729.992464	-7.156049	-321.580353	-194.954987
1729.995794	-7.039158	-316.729401	-188.467560
1729.999132	-6.688486	-312.229095	-182.564575
1730.002469	-6.454705	-309.891296	-176.369370
1730.006711	-5.519579	-301.650513	-164.154297
1730.009977	-5.811806	-297.267090	-158.426636
1730.013308	-5.987142	-293.994171	-153.575684
1730.016649	-4.642899	-289.786102	-149.133850
1730.019997	-3.357101	-285.753357	-143.347748
1730.022901	-3.824664	-282.772644	-138.789001
1730.026240	-2.889538	-279.324371	-134.347168
1730.029576	-2.188194	-276.811218	-128.794861
1730.032916	-2.071303	-272.194031	-124.528343
1730.035795	-1.779077	-269.271790	-120.437172
1730.039126	-1.837522	-266.232605	-115.819992
1730.042461	-1.603741	-262.784332	-113.599060
1730.045790	-1.077732	-259.452972	-109.157219
1730.049122	-1.019287	-256.589111	-105.007599
1730.052459	-0.785506	-253.608414	-102.552895
1730.055793	-0.259497	-250.335480	-98.870834
1730.059129	-0.259497	-247.997665	-95.948563
1730.062460	-0.259497	-244.900055	-92.441849
1730.065800	0.149620	-242.211578	-89.227356
1730.069123	0.383401	-240.224426	-87.006424
1730.072461	-0.142607	-235.841034	-83.791931
1730.075789	-0.142607	-234.321457	-81.804794
1730.079120	-0.317943	-232.275864	-78.298065
1730.082452	-0.201052	-228.886032	-76.778488
1730.085788	-0.201052	-227.366455	-73.563995
1730.089121	0.383401	-223.976608	-72.453537
1730.092458	0.500292	-221.931030	-69.940384
1730.095806	0.032729	-220.353012	-67.135010
1730.099120	-0.084161	-217.839859	-65.264755
1730.103380	-0.727060	-212.638229	-61.056690
1730.106662	0.091175	-211.177094	-59.946228
1730.109967	-0.084161	-209.131500	-58.251312
1730.113295	-0.317943	-207.085922	-56.264172
1730.116221	-0.434834	-206.209229	-55.270599
1730.119543	0.032729	-202.644058	-53.634129
1730.122871	0.091175	-201.241379	-51.530098
1730.126256	0.383401	-199.429565	-49.835182
1730.129113	-0.201052	-197.500870	-48.783165
1730.132450	-0.025716	-196.390411	-46.737579
1730.135782	0.558738	-194.870834	-45.101109
1730.139160	0.324956	-193.234375	-44.458210
1730.142444	1.026300	-190.838104	-42.821739
