time (s)	magX	magY	magZ
2344.281901	46.905907	-354.426636	-418.040924
2344.285234	47.782581	-355.186432	-434.054962
2344.288661	48.951488	-356.706024	-451.763885
2344.291480	50.237286	-356.472229	-468.713043
2344.294813	51.113968	-356.238464	-485.369965
2344.298121	52.691998	-357.348907	-504.423157
2344.301451	53.860901	-356.706024	-521.313843
2344.304363	55.438923	-354.192871	-539.665710
2344.307691	56.783169	-352.614868	-558.718872
2344.311031	57.718296	-349.809479	-575.784912
2344.314359	59.354763	-347.120972	-593.786072
2344.317691	60.465229	-343.205139	-610.968994
2344.321031	61.634132	-339.698425	-630.957275
2344.324358	62.803040	-333.503235	-648.140259
2344.327696	64.030388	-328.593811	-665.966064
2344.331049	65.257744	-322.281708	-683.441223
2344.334360	66.543541	-314.976044	-698.695496
2344.337695	67.244888	-306.676788	-715.235474
2344.341029	68.589127	-297.500885	-732.184692
2344.344355	68.998245	-288.383423	-748.432495
2344.347686	70.634720	-278.681458	-762.809998
2344.351026	71.160728	-267.985962	-778.940918
2344.354362	71.862068	-257.115143	-791.097595
2344.357696	72.154297	-244.140274	-805.299805
2344.361021	72.563416	-232.158966	-816.872009
2344.364351	72.504967	-218.716553	-826.515442
2344.367686	72.388077	-203.111618	-838.204529
2344.371027	72.563416	-187.506729	-847.614197
2344.375237	71.569839	-155.127991	-863.043823
2344.378537	71.394508	-137.886627	-868.713013
2344.381909	70.459381	-119.710114	-873.680908
2344.385228	69.582703	-101.299820	-877.304504
2344.388136	68.822906	-82.772652	-881.629395
2344.391466	67.829338	-63.602573	-882.096985
2344.394857	66.835770	-44.549389	-879.700806
2344.398110	65.549973	-25.087084	-880.460449
2344.401018	63.913498	-5.975453	-876.369324
2344.404356	62.569260	15.006430	-870.992432
2344.407686	61.049683	34.702511	-865.031006
2344.411022	60.231445	53.580360	-859.303284
2344.414349	58.478081	72.984222	-852.465210
2344.417712	57.075394	91.336060	-844.633484
2344.421012	55.380482	110.506142	-835.808228
2344.424352	54.153126	129.033310	-824.411438
2344.427685	52.867329	146.274704	-811.378113
2344.431018	51.289307	162.814728	-799.572144
2344.434346	50.003506	179.354767	-788.233765
2344.437679	48.776154	195.018112	-774.499084
2344.441016	47.665691	209.570999	-760.939758
2344.444343	46.204559	224.123901	-745.510254
2344.447679	44.977207	237.215668	-731.541748
2344.451017	43.691410	250.541214	-715.761475
2344.454341	42.464058	261.236694	-699.513672
2344.457675	41.061367	273.977783	-684.376343
2344.461028	40.126244	284.147278	-668.245422
2344.464342	38.957336	293.849213	-651.939209
2344.467688	37.905319	302.440674	-633.704285
2344.471013	36.911747	310.798370	-617.982483
2344.475617	34.047924	325.117462	-584.551697
2344.478529	32.995911	330.552887	-566.959656
2344.481889	31.710114	336.163635	-550.478088
2344.485238	30.599651	340.780823	-534.347168
2344.488609	29.430744	344.579773	-517.573364
2344.491457	27.618935	348.612488	-501.033325
2344.494786	26.450029	351.008759	-485.895966
2344.498136	25.631794	352.469910	-469.005249
2344.501431	24.112215	354.340149	-452.932800
2344.504800	22.767973	355.801300	-438.087677
2344.507672	21.482174	356.210388	-422.190521
2344.511011	20.430159	355.333740	-407.053192
2344.514340	18.910580	355.509064	-393.260071
2344.517673	18.092344	354.106384	-378.824066
2344.521003	16.864990	353.054352	-364.504974
2344.524339	15.111631	350.541199	-350.653412
2344.527666	14.293396	348.670959	-336.801880
2344.531007	13.124489	346.333160	-324.294586
2344.534339	11.838690	344.170654	-311.611938
2344.537676	11.020456	341.014587	-299.864410
2344.541005	10.611338	336.806549	-288.000000
2344.544339	9.267096	334.059631	-276.369385
2344.547690	8.799532	329.617767	-265.381653
2344.551006	8.565750	326.052582	-254.744598
2344.554338	7.455289	322.545898	-244.165985
2344.557679	6.403272	317.694916	-233.821167
2344.561008	6.111046	313.954407	-224.236115
2344.564340	6.052600	309.103455	-214.417297
2344.567667	5.935710	303.843353	-206.001160
2344.571000	4.766803	299.226196	-196.591461
2344.574339	3.773232	294.842804	-188.759796
2344.578961	3.539451	286.075989	-174.089996
2344.581873	2.838107	280.874359	-165.907654
2344.585216	3.364114	276.374054	-160.004669
2344.588534	3.013443	270.471069	-152.582108
2344.591488	2.545879	266.789001	-146.796021
2344.594781	2.896552	262.054932	-139.665680
2344.598101	2.838107	257.087097	-133.938049
2344.601420	1.902981	252.762131	-128.151947
2344.604332	2.312098	248.378723	-121.956749
2344.607661	2.019871	244.521332	-117.924019
2344.610999	1.084746	239.261246	-112.780830
2344.614331	1.318527	235.462311	-107.520752
2344.617657	1.610754	231.195786	-103.078903
2344.620996	1.318527	226.870850	-98.637054
2344.624327	1.260082	222.545883	-94.545883
2344.627663	1.318527	218.630051	-90.396255
2344.631001	0.324956	214.480423	-86.480423
2344.634355	0.266511	210.739929	-82.038574
2344.637662	0.032729	206.824081	-78.824081
2344.640998	-0.025716	203.960251	-75.258911
2344.644326	-0.142607	199.343079	-72.219749
2344.647660	-0.142607	196.070129	-68.596146
2344.650995	-0.025716	191.862076	-65.790764
2344.654320	-0.551724	188.530685	-62.108707
2344.657682	-0.493279	185.491531	-59.712448
2344.660999	-0.668615	181.809479	-56.907070
2344.664322	-0.142607	179.062531	-54.277031
2344.667661	-1.369959	175.205154	-50.127411
2344.670990	-1.311514	172.867340	-47.322033
2344.675620	-0.960842	166.321442	-43.113968
2344.678548	-1.253068	162.931625	-39.957916
2344.681854	-1.136178	160.009354	-38.029221
2344.685252	-1.837522	157.087082	-36.451195
2344.688109	-2.188194	154.573929	-34.522499
2344.691433	-2.188194	152.002335	-32.886032
2344.694771	-2.071303	149.489182	-30.723551
2344.698097	-2.246639	146.274704	-29.262419
2344.701405	-2.363530	143.936890	-27.392168
2344.704324	-2.480421	141.482178	-24.879017
2344.707656	-2.597311	139.027466	-24.002337
2344.710989	-2.421976	136.631210	-21.722969
2344.714321	-2.714202	135.053177	-21.196960
2344.717657	-2.188194	132.656921	-20.437172
2344.720987	-2.246639	130.552887	-18.508472
2344.724318	-2.188194	128.741089	-17.631790
2344.727663	-2.246639	126.812393	-16.579777
2344.730987	-3.006429	125.059036	-15.352425
2344.734318	-2.538866	123.422562	-14.767971
2344.737651	-2.305085	121.552315	-14.183517
2344.740982	-2.305085	119.740501	-13.131500
2344.744315	-2.188194	117.694916	-12.137932
2344.747652	-1.603741	116.467560	-12.196377
2344.750984	-2.363530	114.831093	-10.559902
2344.754312	-1.954413	113.720634	-10.033897
2344.757658	-1.837522	112.142609	-9.449444
2344.760981	-1.545295	110.097015	-8.338982
2344.764348	-1.545295	109.220337	-8.046753
2344.767645	-1.545295	108.051430	-7.812973
2344.770998	-1.545295	106.765625	-6.410286
2344.775163	-1.545295	103.492691	-5.650494
2344.778492	-1.486850	102.499130	-4.832260
2344.781855	-1.720631	101.096436	-4.130917
2344.785193	-1.837522	100.570427	-4.364697
2344.788101	-1.837522	98.817062	-3.897137
2344.791430	-1.720631	98.524841	-2.728230
2344.794801	-1.369959	96.713028	-2.143772
2344.798069	-2.012858	95.310341	-1.325539
2344.800974	-1.662186	94.667450	-1.208649
2344.804314	-2.188194	93.673874	-0.390411
2344.807668	-1.603741	92.621857	-0.799534
2344.810972	-2.012858	91.862068	0.427822
2344.814309	-2.480421	90.810051	0.310932
2344.817644	-2.305085	90.108711	1.713619
2344.820973	-2.305085	88.939804	1.421391
2344.824307	-2.071303	88.530685	1.362949
2344.827643	-2.538866	87.537109	1.772060
2344.830974	-2.188194	86.485092	2.181183
2344.834308	-2.538866	85.783752	2.590302
2344.837639	-2.597311	84.614845	3.408539
2344.840980	-2.714202	84.030388	3.700760
2344.844303	-1.895967	83.445938	3.350090
2344.847641	-1.954413	83.153709	4.226772
2344.850978	-2.363530	82.744591	3.642319
2344.854312	-2.246639	82.393921	3.466980
2344.857680	-2.129749	81.341904	3.876099
2344.860977	-2.655757	81.341904	4.109882
2344.864302	-2.246639	80.523666	4.635887
2344.867642	-2.071303	80.172997	4.811226
2344.871825	-2.363530	79.588547	4.168324
2344.875157	-2.012858	79.763885	4.402103
2344.878508	-2.129749	79.530106	4.577446
2344.881876	-2.480421	79.062531	4.869667
2344.884749	-2.188194	79.237869	5.921684
2344.888089	-2.188194	78.887199	5.045006
2344.891421	-2.012858	78.419640	5.687904
2344.894727	-2.129749	78.010521	5.746349
2344.897631	-1.779077	77.893623	6.272354
2344.900969	-2.071303	77.426064	5.512569
2344.904301	-1.720631	77.659843	4.811226
2344.907630	-1.311514	77.776733	4.460552
2344.910999	-1.895967	77.659843	5.629459
2344.914305	-1.486850	77.426064	5.629459
2344.917633	-1.545295	76.841614	6.564587
2344.920968	-1.720631	76.315605	5.629459
2344.924299	-1.720631	76.841614	6.330803
2344.927633	-1.545295	77.016953	6.272354
2344.930966	-1.895967	76.724716	6.506138
2344.934300	-1.954413	76.724716	6.155464
2344.937634	-1.779077	76.666275	6.038574
2344.940964	-2.421976	76.549385	6.272354
2344.944293	-1.837522	76.607826	6.915257
2344.947627	-2.071303	77.192284	6.506138
2344.950970	-1.837522	76.958504	6.155464
2344.954303	-1.837522	77.192284	6.506138
2344.957632	-2.071303	76.841614	5.980133
2344.960957	-2.363530	77.542953	6.564587
2344.964297	-1.895967	76.958504	7.149040
2344.968924	-2.012858	77.952072	6.564587
2344.971803	-1.837522	77.952072	6.506138
2344.975159	-2.305085	78.244301	6.389248
2344.978505	-2.305085	77.542953	6.272354
2344.981873	-1.779077	78.302750	6.272354
2344.984732	-1.779077	79.471657	5.571011
2344.988052	-2.421976	78.828751	5.571011
2344.991427	-2.012858	79.530106	6.038574
2344.994295	-2.480421	79.588547	5.512569
2344.997638	-2.421976	80.582115	5.161896
2345.000963	-2.363530	80.699005	4.285213
2345.004295	-2.597311	81.517242	5.921684
2345.007627	-2.305085	81.926361	4.694336
2345.010964	-2.538866	82.510811	3.817650
2345.014292	-2.538866	83.387497	4.635887
2345.017617	-2.538866	83.855057	4.518997
2345.020960	-2.714202	84.614845	3.057865
2345.024292	-2.421976	85.257744	3.525429
2345.027623	-2.188194	86.017532	2.707191
2345.030950	-2.188194	86.251312	2.590302
2345.034306	-2.421976	86.894211	2.648746
2345.037619	-2.421976	88.238457	1.888954
2345.040954	-2.421976	88.647575	1.713619
2345.044283	-2.363530	89.991821	1.012276
2345.047633	-2.246639	90.459381	0.661602
2345.050960	-1.662186	91.336060	0.603157
2345.054285	-2.012858	92.212746	0.369373
2345.057621	-1.954413	92.680305	-0.390411
2345.060953	-2.305085	93.673874	-0.857975
2345.064286	-2.246639	95.018120	-0.799534
2345.068469	-3.824664	96.420807	-1.851547
2345.071832	-2.889538	97.765053	-1.851547
2345.075156	-2.772648	98.524841	-2.728230
2345.078110	-3.415546	99.810638	-2.728230
2345.081394	-2.714202	100.511978	-2.669785
2345.084738	-3.883109	102.031563	-3.721798
2345.088066	-4.292227	103.375801	-4.715370
2345.091373	-4.175336	104.486259	-4.364697
2345.094285	-4.409118	105.772064	-5.650494
2345.097615	-4.526008	107.408539	-6.001167
2345.100949	-4.116891	108.518997	-6.176502
2345.104280	-3.590883	109.980133	-7.520744
2345.107613	-3.473992	111.616600	-6.936295
2345.110950	-4.175336	112.902390	-7.462299
2345.114278	-4.175336	114.246643	-8.046753
2345.117617	-5.636470	116.233780	-9.332550
2345.120986	-5.636470	118.162476	-10.209232
2345.124280	-5.811806	120.032730	-10.618347
2345.127614	-5.519579	121.318527	-12.021038
2345.130942	-5.344243	123.130333	-12.722385
2345.134278	-5.870252	125.351265	-14.066628
2345.137603	-5.753361	126.637054	-15.469315
2345.140947	-5.928697	128.857986	-16.521332
2345.144274	-5.753361	131.488007	-18.274689
2345.147606	-5.753361	132.832260	-18.157799
2345.150940	-5.987142	134.819397	-20.144943
2345.154317	-6.396259	138.033905	-21.489187
2345.157613	-6.396259	139.962585	-23.417883
2345.162217	-5.928697	144.521332	-26.632376
2345.165164	-6.746932	147.618942	-27.392168
2345.168468	-6.162478	150.073639	-30.022207
2345.171831	-5.870252	152.703674	-31.132669
2345.174725	-6.162478	155.742828	-33.996490
2345.178054	-6.630041	157.729980	-35.223843
2345.181390	-6.337814	160.652237	-37.503212
2345.184774	-6.220923	163.165405	-39.081238
2345.187608	-6.513150	166.555222	-40.951488
2345.190942	-6.688486	169.945068	-42.938629
2345.194279	-6.279369	172.224426	-44.633545
2345.197607	-7.448276	175.614258	-47.672703
2345.200939	-7.156049	179.120987	-50.127411
2345.204276	-7.331385	182.861481	-53.809467
2345.207641	-7.389831	186.426651	-56.088837
2345.210937	-7.389831	189.582703	-59.887783
2345.214278	-7.565167	192.972534	-62.693161
2345.217604	-7.389831	196.420807	-65.440094
2345.220939	-8.149620	199.752182	-68.245468
2345.224266	-8.734074	203.784912	-71.576851
2345.227600	-8.324956	207.642319	-75.901810
2345.230933	-8.149620	211.616592	-79.642311
2345.234272	-9.376972	215.415543	-83.207474
2345.237602	-8.734074	219.039154	-86.714203
2345.240932	-9.844536	223.013443	-91.039154
2345.244266	-9.669199	227.338409	-95.188782
2345.247597	-9.902981	231.838684	-99.396843
2345.250988	-10.487434	235.345413	-103.838692
2345.254270	-10.838106	239.611908	-108.455872
2345.258451	-11.656342	248.028061	-120.086502
2345.261780	-11.597897	252.060776	-125.463470
2345.265110	-11.247223	257.028625	-131.074219
2345.268476	-11.773232	261.236694	-137.035645
2345.271808	-12.065458	265.795441	-143.815308
2345.274718	-12.065458	270.587982	-151.004089
2345.278044	-12.416130	275.555817	-157.433075
2345.281412	-11.831678	280.231445	-164.388077
2345.284690	-12.299240	285.374634	-172.336639
2345.287593	-12.474577	289.816467	-180.343658
2345.290930	-13.175920	294.258331	-189.285797
2345.294286	-13.409702	299.635284	-197.935699
2345.297599	-13.351255	303.901825	-206.994751
2345.300929	-13.059031	308.811218	-215.235535
2345.304262	-12.883694	312.727081	-225.521912
2345.307600	-12.883694	316.876678	-236.275879
2345.310928	-12.708357	321.260071	-246.328461
2345.314258	-12.883694	325.000610	-256.731720
2345.317587	-12.825249	329.500854	-267.953217
2345.320925	-12.591467	333.124481	-279.525421
2345.324263	-12.825249	336.981903	-290.279358
2345.327589	-12.708357	340.780823	-302.494446
2345.330924	-11.714787	343.995331	-314.767975
2345.334257	-12.299240	345.690247	-326.573944
2345.337604	-12.299240	348.904724	-339.081238
2345.340921	-11.773232	351.359436	-352.640564
2345.344264	-12.474577	353.814148	-366.959686
2345.347596	-12.007013	354.866180	-381.045013
2345.350925	-12.766804	355.567505	-394.954987
2345.354254	-13.059031	356.677948	-409.332581
2345.358889	-13.351255	358.139099	-439.431915
2345.361808	-13.234365	356.619537	-454.803040
2345.365132	-13.234365	355.392181	-470.232635
2345.368463	-13.935711	353.872589	-485.662170
2345.371894	-13.818819	352.645233	-502.903564
2345.374703	-14.111046	349.839844	-518.976013
2345.378038	-14.169493	346.391571	-535.632935
2345.381385	-13.994156	341.832855	-551.939209
2345.384675	-14.520164	337.215668	-568.128540
2345.387589	-14.403273	331.604919	-584.727051
2345.390916	-14.344828	325.585022	-603.254211
2345.394255	-14.286383	318.162476	-619.268250
2345.397584	-14.169493	310.973694	-636.684998
2345.400917	-14.637054	301.154877	-654.101685
2345.404251	-13.526592	292.563416	-669.414368
2345.407587	-12.825249	281.458801	-684.551697
2345.410920	-13.234365	270.821747	-702.669739
2345.414249	-12.299240	259.950897	-718.742249
2345.417585	-11.247223	247.092941	-733.996460
2345.420916	-11.188778	234.585617	-748.490906
2345.424256	-10.019872	219.156052	-763.978943
2345.427581	-9.201636	205.362946	-778.473389
2345.430916	-7.915839	189.232025	-792.558716
2345.434245	-7.506721	173.042664	-805.767395
2345.437581	-5.870252	156.035065	-818.917603
2345.440957	-4.467563	138.969025	-829.788452
2345.444249	-2.655757	121.143188	-840.250122
2345.447582	-1.311514	102.499130	-850.010498
2345.450915	-0.551724	84.264168	-858.017456
2345.454266	0.734074	65.444771	-864.738708
2345.457580	1.493863	46.157803	-872.862671
2345.462206	3.773232	7.116306	-883.148987
2345.465139	4.649912	-12.696670	-887.064880
2345.468455	6.052600	-31.632963	-887.766174
2345.471859	7.279953	-50.101696	-886.714172
2345.475216	7.279953	-69.739334	-890.045593
2345.478085	7.805961	-88.149620	-887.006409
2345.481334	8.565750	-106.092346	-885.253052
2345.484712	8.799532	-123.333725	-879.642334
2345.488004	9.208651	-141.042664	-874.966675
2345.490913	9.267096	-157.465820	-868.362366
2345.494243	10.436003	-173.479828	-863.219177
2345.497602	10.845119	-189.961426	-852.172974
2345.500905	10.669783	-204.105209	-843.581543
2345.504245	11.020456	-218.424316	-834.113342
2345.507572	11.195791	-232.451202	-822.658081
2345.510916	10.728230	-245.484512	-810.559875
2345.514244	11.137346	-256.998260	-797.994141
2345.517570	11.488018	-268.687317	-785.136169
2345.520911	10.903564	-278.973694	-771.518372
2345.524237	11.312683	-289.376984	-755.855042
2345.527570	10.845119	-300.189362	-742.821716
2345.530907	11.195791	-308.722382	-724.820557
2345.534255	11.195791	-316.670929	-709.507874
2345.537570	11.604908	-325.905334	-693.143127
2345.540919	11.488018	-331.048523	-674.674438
2345.544238	12.247808	-337.886627	-658.777283
2345.547566	12.130917	-341.627136	-640.367004
2345.550903	12.306253	-347.237885	-624.119202
2345.554240	13.182936	-351.562836	-605.884216
2345.557565	13.124489	-354.777313	-586.480408
2345.561748	13.650497	-358.810059	-551.997681
2345.565114	13.708942	-362.258331	-534.347168
2345.568444	13.767387	-362.258331	-515.586182
2345.571862	14.585623	-363.544128	-497.877289
2345.574686	14.644068	-364.187012	-480.577423
2345.578017	15.286966	-363.018097	-463.745178
2345.581410	14.877850	-363.368805	-447.731140
2345.584677	15.286966	-362.492096	-431.015778
2345.587567	15.754530	-359.686737	-415.060211
2345.590904	15.520748	-358.284058	-399.630615
2345.594234	15.637638	-354.952667	-383.908844
2345.597568	15.929865	-354.251312	-370.524841
2345.600896	15.579193	-350.277039	-355.971954
2345.604230	16.046757	-347.296295	-342.003510
2345.607565	15.579193	-343.205139	-329.262421
2345.610899	15.228521	-340.808899	-315.469330
2345.614250	15.286966	-337.243713	-302.903564
2345.617561	15.053186	-333.386322	-290.805359
2345.620897	14.702513	-329.762726	-279.817657
2345.624228	13.942724	-325.905334	-268.537689
2345.627567	14.118061	-321.054352	-257.316193
2345.630892	13.884279	-318.950317	-246.971344
2345.634226	13.650497	-313.924011	-237.620117
2345.637562	12.949154	-309.248413	-227.041504
2345.640897	13.007599	-305.274109	-217.982452
2345.644230	12.247808	-301.066040	-209.507874
2345.647583	11.897135	-296.799530	-200.507324
2345.650894	11.254236	-291.364136	-192.850952
2345.654226	11.137346	-288.558746	-183.850372
2345.657583	10.669783	-284.409119	-176.486267
2345.662188	10.202221	-274.064270	-162.693146
2345.665079	9.734657	-270.966705	-155.095276
2345.668430	9.559322	-266.758636	-148.374054
2345.671770	9.500877	-262.316772	-142.471069
2345.674697	9.267096	-258.108704	-136.334305
2345.678009	8.507305	-253.900650	-130.898895
2345.681340	8.156633	-250.919937	-125.814140
2345.684652	8.331970	-245.893616	-119.443596
2345.687559	8.156633	-241.627121	-114.884857
2345.690889	8.098188	-238.412613	-109.040329
2345.694258	8.215078	-235.256577	-104.656921
2345.697550	8.215078	-231.340744	-99.572174
2345.700900	8.273523	-226.665115	-95.831680
2345.704219	8.039743	-222.573929	-91.506714
2345.707554	8.273523	-219.593216	-86.714203
2345.710888	7.864407	-216.378738	-83.265923
2345.714223	7.396844	-212.930435	-79.759201
2345.717550	8.156633	-209.073059	-76.836937
2345.720886	8.039743	-205.858566	-72.628876
2345.724221	7.338398	-202.059616	-69.765045
2345.727549	8.098188	-198.728226	-66.784332
2345.730886	7.455289	-195.104630	-63.043831
2345.734221	7.572180	-193.351257	-60.180008
2345.737570	7.805961	-189.493866	-57.549969
2345.740884	8.215078	-186.220917	-54.627701
2345.744220	7.221509	-183.532440	-52.056107
2345.747549	7.805961	-180.493286	-49.426064
2345.750881	7.221509	-177.512558	-47.555813
2345.754215	7.630625	-175.233200	-45.159554
2345.757550	7.279953	-173.362946	-43.113968
2345.760882	6.461718	-169.914673	-40.776154
2345.764214	7.104618	-168.570419	-39.256573
2345.768395	6.695499	-163.427231	-35.749851
2345.771744	6.637054	-160.972534	-34.347164
2345.775077	7.221509	-158.634720	-32.009350
2345.778470	6.461718	-156.998260	-31.308004
2345.781351	6.111046	-155.420227	-29.788425
2345.784742	6.286382	-153.257736	-28.385738
