time (s)	magX	magY	magZ
3882.427652	19.787260	91.043839	-688.233765
3882.430980	18.793688	102.616013	-683.090576
3882.433874	17.274109	114.246643	-675.901794
3882.437203	15.462303	124.883690	-668.011658
3882.440530	14.585623	135.871429	-660.179993
3882.443869	13.358271	146.391586	-651.939209
3882.447203	11.604908	156.677963	-643.523071
3882.450530	9.968439	165.737000	-634.347107
3882.453865	7.981297	175.497360	-626.281677
3882.457197	6.870836	185.082413	-616.345947
3882.460527	5.059030	193.849213	-607.228516
3882.463862	3.364114	202.382233	-598.111023
3882.467210	2.195208	209.863235	-586.655762
3882.470529	0.558738	217.578033	-576.369385
3882.473865	-0.727060	224.883698	-566.433655
3882.477195	-1.895967	231.488007	-555.036804
3882.480525	-4.292227	238.150787	-544.984192
3882.483866	-6.104033	244.053772	-533.996460
3882.487193	-6.863822	249.547623	-522.891846
3882.490530	-8.266511	254.398621	-510.969025
3882.493860	-9.493863	259.600220	-501.442444
3882.497195	-10.428989	264.626526	-490.104004
3882.501476	-11.948568	272.282898	-467.602600
3882.504762	-12.883694	275.964935	-456.614838
3882.508038	-13.526592	278.653412	-446.153137
3882.511397	-14.111046	280.699005	-435.106964
3882.514287	-15.572180	282.101715	-424.528351
3882.517614	-15.805962	284.731750	-415.235535
3882.520942	-16.273525	286.075989	-403.955597
3882.524305	-16.390415	287.829315	-393.493866
3882.527187	-17.383986	288.296875	-383.675049
3882.530522	-18.319111	289.699615	-373.564026
3882.533852	-17.909994	290.108704	-363.745178
3882.537183	-18.786674	291.043823	-354.160156
3882.540578	-18.903564	289.758026	-343.581543
3882.543862	-19.663355	290.342499	-333.704254
3882.547226	-20.014027	288.355347	-325.229706
3882.550522	-20.130919	287.829315	-315.644653
3882.553862	-20.130919	287.537109	-307.053192
3882.557188	-20.130919	286.777344	-298.578613
3882.560520	-21.124489	285.140839	-290.630035
3882.563856	-20.832262	284.322632	-281.863251
3882.567185	-21.299824	281.984802	-273.563995
3882.570518	-21.182934	280.757446	-265.966095
3882.573847	-21.767387	279.354767	-257.491516
3882.577186	-21.767387	276.841614	-250.302734
3882.580517	-22.001169	274.912903	-243.289307
3882.583852	-22.059614	272.516663	-235.574524
3882.587191	-22.527176	270.412598	-228.151947
3882.590532	-22.702513	267.899475	-221.430756
3882.593850	-22.644068	265.269409	-214.358856
3882.598120	-22.936295	259.892456	-200.857971
3882.601450	-22.877848	258.548218	-195.656342
3882.604752	-22.936295	255.099945	-189.753357
3882.608035	-23.228519	253.171249	-184.376373
3882.610943	-23.228519	250.015182	-178.005829
3882.614266	-23.286966	247.326706	-172.453537
3882.617600	-23.286966	244.871994	-166.959671
3882.620943	-23.228519	241.540619	-162.225586
3882.623846	-22.936295	239.202805	-156.848633
3882.627179	-23.403856	236.280533	-152.465225
3882.630516	-23.696083	233.825821	-147.438919
3882.633868	-23.345411	230.845123	-143.172424
3882.637177	-22.877848	228.039734	-139.431915
3882.640516	-23.111629	225.000595	-135.457626
3882.643849	-23.345411	222.019867	-130.723541
3882.647197	-22.760958	219.915848	-127.275276
3882.650513	-22.760958	217.519562	-122.716537
3882.653845	-22.527176	215.181763	-119.268265
3882.657177	-22.410286	211.675049	-116.696671
3882.660508	-22.527176	209.570999	-111.845703
3882.663847	-21.942722	206.356522	-108.806549
3882.667175	-22.293396	203.726486	-104.832260
3882.670510	-21.942722	200.687317	-101.676208
3882.673842	-22.001169	198.758621	-98.403275
3882.677179	-21.708942	196.420807	-94.896545
3882.680511	-21.358269	194.375214	-93.201637
3882.683863	-21.066044	191.394501	-90.162476
3882.687170	-21.241379	188.647583	-87.707771
3882.691846	-20.949152	184.264175	-81.921677
3882.694788	-21.241379	182.861481	-79.642311
3882.698127	-20.949152	180.114563	-77.888954
3882.701432	-20.364698	177.250732	-74.791351
3882.704691	-20.247808	175.438934	-72.628876
3882.707599	-20.247808	173.627121	-70.174164
3882.710927	-19.838692	170.880188	-68.362358
3882.714259	-19.546465	169.243713	-65.849213
3882.717178	-19.429575	167.665695	-64.738747
3882.720499	-19.780245	164.918762	-62.284042
3882.723835	-19.721800	163.691406	-61.290474
3882.727190	-18.845119	160.944473	-59.303329
3882.730504	-18.669783	159.191116	-57.433079
3882.733838	-18.728230	157.671539	-55.738163
3882.737171	-18.962009	156.385742	-54.043247
3882.740500	-19.254236	154.573929	-51.822323
3882.743836	-18.786674	152.762131	-49.659847
3882.747164	-18.494448	151.300995	-48.666275
3882.750507	-18.377556	149.372284	-46.796024
3882.753829	-18.552893	147.618942	-45.802452
3882.757164	-18.085329	147.092926	-45.101109
3882.760502	-18.728230	145.164230	-43.406193
3882.763831	-18.260666	143.118637	-42.237286
3882.767165	-18.552893	141.832840	-40.893044
3882.770519	-18.669783	140.137939	-39.665691
3882.773828	-18.202221	139.553482	-38.496784
3882.777160	-17.793104	137.800125	-38.029221
3882.780495	-18.377556	136.105209	-37.561661
3882.783830	-17.559322	134.877853	-36.217415
3882.788052	-17.442430	132.656921	-33.821156
3882.791370	-16.857979	131.663361	-33.821156
3882.794763	-17.383986	130.611343	-32.944473
3882.798081	-17.267096	129.676208	-31.191114
3882.800978	-16.916424	128.098190	-31.074223
3882.804252	-17.150204	127.572174	-30.723551
3882.807588	-17.325541	126.403275	-30.898888
3882.810913	-17.150204	125.292816	-29.554646
3882.813859	-17.150204	124.708351	-29.437754
3882.817164	-16.682642	123.305664	-28.093512
3882.820494	-16.857979	122.253654	-27.099939
3882.823826	-16.448860	121.552315	-26.807713
3882.827178	-16.390415	120.675621	-26.223259
3882.830491	-16.741087	120.324959	-26.690823
3882.833820	-16.390415	119.857391	-25.638805
3882.837158	-16.448860	118.688492	-24.586790
3882.840486	-16.390415	117.402687	-24.469898
3882.843820	-16.039743	116.818237	-23.885447
3882.847161	-16.390415	116.876686	-23.125656
3882.850492	-15.689070	115.883110	-23.242546
3882.853842	-16.390415	115.766212	-22.950321
3882.857195	-16.273525	114.363525	-21.489187
3882.860494	-16.039743	114.071297	-21.430742
3882.863824	-16.215078	113.486847	-21.722969
3882.867161	-16.448860	113.253067	-20.904734
3882.870510	-15.689070	112.668610	-21.489187
3882.873822	-16.215078	111.616600	-20.787844
3882.877158	-16.273525	112.025711	-20.378725
3882.880490	-16.215078	110.681473	-19.852715
3882.884687	-15.805962	110.506142	-19.385151
3882.888017	-16.448860	110.623024	-19.326706
3882.891454	-16.215078	110.155464	-18.976036
3882.894787	-15.689070	109.512566	-19.502041
3882.897593	-16.215078	109.337234	-18.917591
3882.900943	-16.682642	109.220337	-18.333138
3882.904249	-16.857979	109.161888	-18.099354
3882.907577	-16.799532	108.577438	-18.040909
3882.910485	-16.039743	108.518997	-18.274689
3882.913826	-16.215078	108.577438	-17.631790
3882.917149	-16.215078	108.577438	-18.683807
3882.920481	-16.624197	108.226761	-18.566917
3882.923813	-16.448860	107.876099	-18.566917
3882.927152	-16.916424	108.168327	-18.917591
3882.930487	-16.624197	107.700768	-18.216244
3882.933817	-16.682642	108.226761	-19.209816
3882.937145	-16.857979	108.226761	-19.209816
3882.940485	-16.916424	107.817650	-18.333138
3882.943832	-16.682642	108.752777	-18.683807
3882.947150	-16.331970	108.577438	-18.625362
3882.950487	-16.916424	108.518997	-19.443596
3882.953819	-17.033314	108.635887	-19.385151
3882.957150	-17.325541	108.928108	-19.326706
3882.960481	-16.857979	108.811226	-19.268261
3882.963815	-16.682642	109.337234	-19.502041
3882.967150	-16.857979	108.986557	-19.209816
3882.970479	-17.208651	109.571014	-19.618935
3882.973814	-17.150204	110.038582	-19.794270
3882.978431	-17.267096	110.213913	-19.502041
3882.981402	-17.559322	110.739922	-19.677380
3882.984727	-17.150204	110.915253	-19.677380
3882.988088	-17.150204	111.382820	-20.144943
3882.990926	-17.033314	111.616600	-21.255405
3882.994266	-16.974869	111.733482	-20.554062
3882.997567	-17.442430	112.434830	-21.021624
3883.000908	-17.559322	113.077736	-20.729397
3883.003812	-17.734657	113.019287	-21.138515
3883.007137	-17.617767	113.895966	-21.839859
3883.010477	-17.909994	114.188194	-23.008766
3883.013807	-18.436003	114.772644	-23.008766
3883.017144	-18.260666	115.240204	-22.599648
3883.020473	-18.552893	115.473984	-23.184101
3883.023806	-18.611338	116.526009	-24.119226
3883.027141	-18.728230	117.168900	-24.411453
3883.030483	-18.962009	118.337807	-24.762125
3883.033807	-19.137346	118.688492	-25.872587
3883.037140	-19.780245	119.915840	-25.755697
3883.040472	-19.195791	120.617187	-26.749268
3883.043801	-20.014027	120.850967	-27.041494
3883.047155	-19.955582	122.312096	-27.041494
3883.050481	-20.306253	123.539444	-28.327293
3883.053804	-20.598480	124.708351	-28.502628
3883.057143	-20.364698	124.883690	-29.554646
3883.060469	-20.598480	126.578598	-30.489771
3883.063804	-21.007597	127.630630	-30.372879
3883.067139	-21.767387	128.273529	-31.483341
3883.070465	-21.358269	129.033310	-31.775568
3883.074675	-22.001169	131.546463	-33.996490
3883.078009	-22.118059	131.838684	-35.165398
3883.081338	-22.059614	133.358261	-36.334305
3883.084727	-22.118059	134.176498	-35.983635
3883.087606	-22.293396	135.812973	-37.210987
3883.090971	-23.228519	137.215668	-38.905899
3883.094224	-22.936295	137.975449	-39.490356
3883.097560	-23.111629	139.553482	-40.367035
3883.100466	-23.520746	140.897720	-41.302162
3883.103798	-23.520746	143.001740	-42.997078
3883.107127	-24.163647	143.644653	-43.055519
3883.110466	-24.046757	145.222672	-45.276443
3883.113798	-24.514318	146.859146	-46.445351
3883.117132	-24.689655	148.028046	-47.672703
3883.120459	-24.806545	149.372284	-48.549385
3883.123798	-25.449444	151.768555	-50.828754
3883.127131	-25.449444	153.288132	-51.588543
3883.130486	-26.209234	154.515488	-54.452366
3883.133801	-26.267679	156.210403	-55.445938
3883.137127	-26.384569	158.197540	-56.965515
3883.140464	-26.618351	159.775574	-58.075977
3883.143791	-27.144360	161.470490	-60.998245
3883.147130	-27.027468	163.399185	-62.810051
3883.150499	-27.904148	165.327881	-63.628284
3883.153790	-27.728813	167.139679	-65.790764
3883.157128	-28.371712	169.652832	-68.245468
3883.160491	-29.014612	170.997086	-69.531265
3883.163794	-29.365284	173.393326	-72.570427
3883.167128	-30.183517	175.263580	-74.148453
3883.171310	-30.884863	179.413208	-78.531853
3883.174672	-31.235535	181.283463	-80.694328
3883.178019	-31.936878	183.913498	-83.675041
3883.181384	-32.287552	186.485107	-87.064873
3883.184250	-32.521332	188.939804	-88.818237
3883.187572	-32.638222	190.751617	-92.208061
3883.190932	-33.573349	193.615417	-94.896545
3883.194219	-34.216248	196.070129	-98.111046
3883.197127	-34.450027	198.057266	-101.617767
3883.200454	-35.735828	200.804214	-104.540039
3883.203818	-35.560493	203.492691	-107.812973
3883.207125	-36.787846	206.356522	-111.495033
3883.210457	-36.904736	208.577438	-115.352425
3883.213785	-37.606079	210.739929	-118.625366
3883.217123	-37.956749	213.253067	-122.424309
3883.220458	-38.774986	215.941544	-126.573936
3883.223789	-39.476330	219.389816	-130.022217
3883.227120	-39.651665	221.084732	-133.821167
3883.230450	-39.651665	223.481018	-139.022797
3883.233781	-40.995907	226.403290	-143.289307
3883.237113	-41.463470	228.624207	-147.789597
3883.240454	-42.223259	232.014038	-152.699005
3883.243785	-42.281704	234.819412	-157.491516
3883.247136	-42.866158	237.098770	-161.524261
3883.250450	-44.151955	239.611908	-166.901215
3883.253816	-44.444187	242.125076	-171.869080
3883.257116	-44.502632	244.521332	-177.830505
3883.260460	-45.554646	246.917587	-184.084167
3883.263784	-46.197544	249.664520	-189.694916
3883.267967	-47.541790	255.275269	-201.267090
3883.271320	-48.067795	256.911743	-207.520752
3883.274652	-48.886032	259.483337	-214.884857
3883.277991	-49.879601	261.412048	-220.904724
3883.280908	-49.996494	263.282288	-227.567505
3883.284234	-50.814728	265.503204	-235.048523
3883.287561	-51.399181	267.724121	-242.061951
3883.290476	-52.334305	270.471069	-249.484497
3883.293780	-53.035648	271.172394	-256.965515
3883.297111	-54.204559	272.808899	-265.089417
3883.300446	-55.139687	275.263611	-273.154877
3883.303800	-56.016361	276.724731	-281.161896
3883.307108	-56.483925	278.010498	-289.052002
3883.310446	-57.360607	279.413208	-297.526611
3883.313777	-58.471073	279.763885	-306.176483
3883.317120	-59.172417	280.523682	-314.709534
3883.320439	-59.932201	281.400360	-324.177673
3883.323781	-60.458214	282.744598	-334.054962
3883.327113	-61.101109	282.277039	-343.639984
3883.330443	-62.094681	281.692566	-352.406799
3883.333774	-62.737579	281.809479	-362.576294
3883.337109	-63.848042	281.341919	-373.154877
3883.340440	-65.075394	280.231445	-383.207489
3883.343777	-65.367622	279.179443	-393.610748
3883.347110	-66.419640	277.601410	-404.364716
3883.350438	-66.887199	277.075378	-413.599060
3883.353778	-67.120987	274.620697	-425.521942
3883.357106	-67.120987	272.925781	-435.632965
3883.361312	-68.523666	266.029205	-456.907104
3883.364622	-68.523666	262.931610	-467.836334
3883.367951	-69.225014	260.184692	-479.934570
3883.371317	-69.049683	255.099945	-490.045593
3883.374197	-68.874344	251.300995	-500.857971
3883.377545	-69.400352	246.508484	-512.196350
3883.380894	-69.166573	241.131500	-523.417908
3883.384221	-69.458794	236.455872	-534.931580
3883.387107	-69.225014	229.793091	-546.153137
3883.390497	-69.166573	224.240799	-556.673279
3883.393776	-69.283463	217.461136	-566.024536
3883.397105	-68.640556	209.804794	-577.246033
3883.400442	-68.172997	202.616028	-587.590881
3883.403771	-68.289886	194.901230	-597.818787
3883.407104	-68.172997	186.309753	-608.222107
3883.410438	-67.471657	177.075394	-618.216187
3883.413768	-67.939217	168.542374	-627.801270
3883.417100	-67.296326	158.606659	-636.860291
3883.420450	-66.361191	148.846298	-644.224365
3883.423767	-66.770309	138.559906	-653.224976
3883.427097	-65.718292	128.156631	-660.822876
3883.430428	-65.075394	117.519585	-667.953247
3883.433770	-65.309174	105.772064	-675.609558
3883.437100	-64.432495	94.492111	-682.915222
3883.440433	-63.906487	83.153709	-689.753296
3883.443764	-62.796028	71.406197	-694.662720
3883.447103	-61.860901	59.074223	-700.741089
3883.450428	-61.159557	46.391582	-703.312683
3883.453767	-61.101109	34.293396	-709.507874
3883.458025	-58.587963	10.038573	-717.281067
3883.461288	-58.178841	-3.403857	-718.157776
3883.464636	-56.600815	-16.086498	-721.430725
3883.467943	-56.016361	-28.476915	-721.372253
3883.470848	-55.256577	-41.218002	-721.956726
3883.474183	-53.561657	-53.140854	-721.722961
3883.477523	-52.684978	-65.589714	-722.891846
3883.480887	-51.282291	-78.330803	-721.080017
3883.483758	-50.054939	-90.253654	-718.859131
3883.487093	-48.593803	-101.241379	-717.865540
3883.490425	-47.191116	-112.755119	-712.605469
3883.493762	-45.379311	-125.145531	-710.092346
3883.497131	-44.327293	-135.490356	-705.124451
3883.500452	-42.164814	-146.887192	-700.857971
3883.503760	-40.294563	-157.056686	-695.071838
3883.507094	-38.658096	-166.700165	-689.578003
3883.510427	-37.722969	-177.161896	-682.272339
3883.513757	-36.320282	-186.104034	-674.674438
3883.517093	-34.274693	-195.805969	-667.836304
3883.520429	-33.339565	-204.397446	-658.835693
3883.523756	-31.235535	-213.047333	-651.413208
3883.527090	-30.183517	-220.645233	-643.815308
3883.530425	-28.488604	-228.476898	-632.359985
3883.533757	-26.852133	-235.315018	-623.008728
3883.537092	-25.507891	-241.042664	-613.306824
3883.540417	-24.222092	-247.296310	-603.078857
3883.543779	-22.585621	-254.134415	-594.955017
3883.547091	-21.358269	-258.985413	-582.622986
3883.551349	-18.962009	-269.563995	-561.582703
3883.554681	-18.611338	-272.310913	-550.536560
3883.558017	-16.857979	-277.571014	-539.782593
3883.561268	-16.098188	-282.129730	-527.742798
3883.564607	-14.987726	-284.526001	-515.469299
3883.567507	-14.403273	-288.208069	-505.066071
3883.570845	-13.234365	-290.954987	-493.260101
3883.574184	-12.766804	-293.234375	-481.746338
3883.577082	-11.948568	-294.227936	-470.641724
3883.580416	-11.071888	-296.507324	-458.602020
3883.583751	-9.786091	-297.267090	-447.263580
3883.587096	-9.727645	-299.137360	-436.451202
3883.590416	-8.617184	-300.598480	-425.229706
3883.593754	-8.032730	-300.306244	-414.943329
3883.597081	-7.214495	-300.014008	-403.195801
3883.600432	-6.922268	-301.007599	-392.266510
3883.603804	-6.513150	-300.540039	-381.337250
3883.607083	-5.811806	-299.721802	-371.050842
3883.610413	-5.227353	-299.721802	-360.296906
3883.613745	-3.415546	-297.559326	-349.367615
3883.617112	-3.707773	-297.442444	-338.847443
3883.620410	-2.889538	-296.039734	-329.613098
3883.623746	-1.954413	-295.805969	-319.677399
3883.627080	-1.428404	-293.701935	-310.384583
3883.630445	-1.428404	-291.831696	-301.793091
3883.633748	-0.434834	-290.312103	-292.149628
3883.637081	-0.025716	-288.500275	-284.317963
3883.640414	0.441847	-286.746918	-275.551117
3883.643741	0.734074	-284.058441	-267.018097
3883.648425	2.019871	-280.201050	-251.237885
3883.651340	2.428989	-277.629456	-242.880188
3883.654671	2.604325	-274.999390	-236.042084
3883.657627	3.539451	-271.843353	-227.859711
3883.660836	3.305669	-269.563995	-221.489166
3883.664167	4.007013	-266.758636	-215.235535
3883.667496	3.948568	-264.362366	-208.046753
3883.670833	4.533021	-262.316772	-201.910004
3883.673766	4.591467	-258.985413	-195.481018
3883.677075	4.942139	-256.355347	-189.870239
3883.680401	5.234366	-254.075974	-183.967285
3883.683740	5.409702	-251.036804	-176.953827
3883.687077	5.526593	-248.289902	-171.869080
3883.690409	5.292811	-246.302750	-167.251892
3883.693735	5.935710	-243.964935	-161.874939
3883.697077	5.643484	-240.867325	-156.673279
3883.700400	6.052600	-239.172409	-150.945648
3883.703750	5.643484	-236.250137	-146.036224
3883.707070	5.877264	-232.684967	-142.120392
3883.710459	6.111046	-230.639389	-137.620102
3883.713753	5.760374	-227.658676	-132.944473
3883.717080	5.877264	-224.619537	-129.554642
3883.720407	5.818820	-223.392181	-125.872589
3883.723745	6.344827	-220.177673	-121.430740
3883.727072	5.760374	-218.015198	-118.040909
3883.730398	5.877264	-215.618942	-113.891289
3883.733737	6.403272	-212.638229	-109.683228
3883.737068	6.111046	-209.949738	-106.994736
3883.740402	6.052600	-207.611923	-102.728226
3883.744605	5.994155	-203.696091	-97.059029
3883.747983	6.286382	-201.942719	-94.370544
3883.751360	6.111046	-199.488022	-91.448273
3883.754661	5.818820	-196.039749	-88.584457
3883.757545	5.935710	-193.935715	-86.363525
3883.760844	5.409702	-192.649918	-84.259499
3883.764163	5.701929	-189.902985	-81.278778
3883.767498	5.877264	-188.032730	-78.824081
3883.770399	6.052600	-186.220917	-76.836937
3883.773732	6.169491	-183.649323	-73.739334
3883.777064	7.104618	-181.720627	-71.810638
3883.780401	6.052600	-179.499710	-70.232613
3883.783729	6.286382	-177.629456	-67.836349
3883.787059	6.286382	-176.285217	-66.024544
3883.790402	6.870836	-174.005844	-63.862068
3883.793727	7.046172	-172.661606	-61.991814
3883.797060	6.520163	-171.258911	-59.770893
3883.800396	6.753946	-169.856232	-58.251312
3883.803734	6.812391	-167.343079	-57.316189
3883.807062	6.520163	-165.706604	-54.978374
3883.810395	6.637054	-164.187027	-53.867912
3883.813729	7.046172	-162.901230	-52.114552
3883.817062	7.513734	-161.849213	-49.133839
3883.820439	7.513734	-159.569855	-49.367619
3883.823734	7.396844	-158.050262	-47.789597
3883.827059	7.396844	-156.939804	-46.270016
3883.830395	6.344827	-155.361771	-45.101109
3883.833750	7.338398	-154.777328	-43.932201
3883.838350	6.812391	-151.855057	-41.711277
3883.841245	7.396844	-150.335480	-41.535942
3883.844603	6.929282	-148.757462	-39.139683
3883.847933	6.753946	-148.582108	-38.263000
3883.850860	6.812391	-146.361191	-38.204559
3883.854177	6.520163	-145.192291	-37.152542
3883.857560	6.403272	-144.783157	-35.574516
3883.860818	6.870836	-144.374054	-35.048508
3883.863757	6.403272	-143.029816	-34.639389
3883.867052	6.227936	-142.094681	-33.470482
3883.870388	6.695499	-140.516663	-33.061367
3883.873719	6.227936	-140.575104	-31.892460
3883.877079	6.111046	-139.990646	-31.074223
3883.880385	5.877264	-138.763290	-31.424896
3883.883720	6.286382	-137.594391	-30.197544
3883.887059	6.227936	-137.126831	-29.613091
3883.890387	6.637054	-136.367035	-28.970192
